Frequency (Hz),dB (Relative)
20,9.22000
21,9.69680
22,10.17360
23,10.65040
24,11.12720
25,11.60400
26,12.08080
27,13.37857
28,14.95000
29,16.52143
30,18.09286
31,19.42171
32,20.09469
33,20.76768
34,21.44066
35,22.11633
36,22.84284
37,23.56935
38,24.29586
39,25.02237
40,25.74888
41,26.47007
42,27.13752
43,27.80496
44,28.47241
45,29.13986
46,28.63968
47,27.88319
48,27.12671
49,26.37022
50,25.61373
51,24.66495
52,23.67106
53,22.67717
54,21.68328
55,20.68939
56,20.49376
57,20.38683
58,20.27990
59,20.17297
60,20.06604
61,20.05000
62,20.05000
63,20.05000
64,20.05000
65,20.05000
66,20.05000
67,20.05000
68,20.05000
69,20.05000
70,20.05000
71,20.22282
72,20.39739
73,20.57196
74,20.74653
75,20.96596
76,21.26868
77,21.57141
78,21.87414
79,21.95319
80,21.55691
81,21.16064
82,20.76436
83,20.81553
84,21.21825
85,21.62098
86,22.02371
87,22.42643
88,22.82916
89,23.23188
90,23.63461
91,23.89422
92,24.00488
93,24.11553
94,24.22619
95,24.33684
96,24.43845
97,24.53427
98,24.63009
99,24.72591
100,24.82172
101,24.91754
102,24.98013
103,25.03775
104,25.09536
105,25.15298
106,25.21060
107,25.26822
108,25.32584
109,25.38346
110,25.44107
111,25.49869
112,25.55631
113,25.61393
114,25.67155
115,25.72916
116,25.78678
117,25.84440
118,25.90202
119,25.95964
120,26.01726
121,26.07487
122,26.13249
123,26.19011
124,26.24773
125,26.30535
126,26.36296
127,26.42058
128,26.47820
129,26.53582
130,26.59344
131,26.65105
132,26.70867
133,26.76629
134,26.82391
135,26.88153
136,26.93915
137,26.99676
138,27.05438
139,27.11200
140,27.16962
141,27.22724
142,27.28485
143,27.34247
144,27.40009
145,27.45771
146,27.51533
147,27.57295
148,27.63056
149,27.68818
150,27.74580
151,27.75579
152,27.73130
153,27.70681
154,27.68231
155,27.65782
156,27.63333
157,27.60884
158,27.58434
159,27.55985
160,27.53536
161,27.51086
162,27.48637
163,27.46188
164,27.43738
165,27.41289
166,27.38840
167,27.36390
168,27.33941
169,27.31492
170,27.29043
171,27.26593
172,27.24144
173,27.21695
174,27.19245
175,27.16796
176,27.14347
177,27.11897
178,27.09448
179,27.06999
180,27.04549
181,27.02100
182,26.99651
183,26.97202
184,26.94752
185,26.92303
186,26.89854
187,26.87404
188,26.84955
189,26.82506
190,26.80056
191,26.77607
192,26.75158
193,26.72708
194,26.70259
195,26.67810
196,26.65361
197,26.62911
198,26.60462
199,26.58013
200,26.55563
201,26.53989
202,26.52677
203,26.51364
204,26.50052
205,26.48739
206,26.47426
207,26.46114
208,26.44801
209,26.43489
210,26.42176
211,26.40863
212,26.39551
213,26.38238
214,26.36926
215,26.35613
216,26.34300
217,26.32988
218,26.31675
219,26.30363
220,26.29050
221,26.27737
222,26.26425
223,26.25112
224,26.23800
225,26.22487
226,26.21175
227,26.19862
228,26.18549
229,26.17237
230,26.15924
231,26.14612
232,26.13299
233,26.11986
234,26.10674
235,26.09361
236,26.08049
237,26.06736
238,26.05423
239,26.04111
240,26.02798
241,26.01486
242,26.03848
243,26.08368
244,26.12889
245,26.17409
246,26.21930
247,26.26450
248,26.30970
249,26.35491
250,26.40011
251,26.44532
252,26.49052
253,26.53573
254,26.58093
255,26.62614
256,26.67134
257,26.71654
258,26.76175
259,26.80695
260,26.85216
261,26.89736
262,26.94257
263,26.98777
264,27.03297
265,27.07818
266,27.12338
267,27.16859
268,27.21379
269,27.25900
270,27.30420
271,27.34940
272,27.39461
273,27.43981
274,27.48502
275,27.53022
276,27.57543
277,27.62063
278,27.66583
279,27.71104
280,27.75624
281,27.80145
282,27.84665
283,27.89186
284,27.93706
285,27.98227
286,28.02747
287,28.07267
288,28.11788
289,28.16308
290,28.20829
291,28.25349
292,28.29870
293,28.34390
294,28.38910
295,28.43431
296,28.47951
297,28.52472
298,28.56992
299,28.61513
300,28.66033
301,28.70553
302,28.74602
303,28.78428
304,28.82253
305,28.86079
306,28.89905
307,28.93731
308,28.97557
309,29.01383
310,29.05209
311,29.09035
312,29.12861
313,29.16687
314,29.20513
315,29.24338
316,29.28164
317,29.31990
318,29.35816
319,29.39642
320,29.43468
321,29.47294
322,29.51120
323,29.54946
324,29.58772
325,29.62598
326,29.66423
327,29.70249
328,29.74075
329,29.77901
330,29.81727
331,29.85553
332,29.89379
333,29.93205
334,29.97031
335,30.00857
336,30.04683
337,30.08509
338,30.12334
339,30.16160
340,30.19986
341,30.23812
342,30.27638
343,30.31464
344,30.35290
345,30.39116
346,30.42942
347,30.46768
348,30.50594
349,30.54419
350,30.58245
351,30.62433
352,30.67552
353,30.72671
354,30.77790
355,30.82910
356,30.88029
357,30.93148
358,30.98267
359,31.03386
360,31.08505
361,31.13624
362,31.18743
363,31.23862
364,31.28981
365,31.34100
366,31.39219
367,31.44338
368,31.49457
369,31.54576
370,31.59695
371,31.64814
372,31.69933
373,31.75052
374,31.80171
375,31.85290
376,31.90410
377,31.95529
378,32.00648
379,32.05767
380,32.10886
381,32.16005
382,32.21124
383,32.26243
384,32.31362
385,32.36481
386,32.41600
387,32.46719
388,32.51838
389,32.56957
390,32.62076
391,32.67195
392,32.72314
393,32.77433
394,32.82552
395,32.87671
396,32.92790
397,32.97910
398,33.03029
399,33.08148
400,33.13267
401,33.18386
402,33.27097
403,33.36298
404,33.45499
405,33.54700
406,33.63901
407,33.73102
408,33.82303
409,33.91504
410,34.00705
411,34.09906
412,34.19107
413,34.28308
414,34.37509
415,34.46710
416,34.55911
417,34.65112
418,34.74313
419,34.83514
420,34.92715
421,35.01916
422,35.11117
423,35.20318
424,35.29519
425,35.38720
426,35.47921
427,35.57122
428,35.66323
429,35.75524
430,35.84725
431,35.93926
432,36.03127
433,36.12329
434,36.21530
435,36.30731
436,36.39932
437,36.49133
438,36.58334
439,36.67535
440,36.76736
441,36.85937
442,36.95138
443,37.04339
444,37.13540
445,37.22741
446,37.31942
447,37.41143
448,37.50344
449,37.50597
450,37.48885
451,37.47174
452,37.45462
453,37.43751
454,37.42040
455,37.40328
456,37.38617
457,37.36905
458,37.35194
459,37.33483
460,37.31771
461,37.30060
462,37.28348
463,37.26637
464,37.24926
465,37.23214
466,37.21503
467,37.19791
468,37.18080
469,37.16369
470,37.14657
471,37.12946
472,37.11234
473,37.09523
474,37.07812
475,37.06100
476,37.04389
477,37.02677
478,37.00966
479,36.99255
480,36.97543
481,36.95832
482,36.94120
483,36.92409
484,36.90698
485,36.88986
486,36.87275
487,36.85563
488,36.83852
489,36.82141
490,36.80429
491,36.78718
492,36.77006
493,36.75295
494,36.73583
495,36.71872
496,36.70161
497,36.68449
498,36.66738
499,36.65026
500,36.63315
501,36.61604
502,36.59892
503,36.58181
504,36.55747
505,36.51707
506,36.47666
507,36.43625
508,36.39585
509,36.35544
510,36.31503
511,36.27462
512,36.23422
513,36.19381
514,36.15340
515,36.11300
516,36.07259
517,36.03218
518,35.99177
519,35.95137
520,35.91096
521,35.87055
522,35.83015
523,35.78974
524,35.74933
525,35.70893
526,35.66852
527,35.62811
528,35.58770
529,35.54730
530,35.50689
531,35.46648
532,35.42608
533,35.38567
534,35.34526
535,35.30485
536,35.26445
537,35.22404
538,35.19324
539,35.16351
540,35.13377
541,35.10404
542,35.07431
543,35.04457
544,35.01484
545,34.98511
546,34.95537
547,34.92564
548,34.89591
549,34.86617
550,34.83644
551,34.80671
552,34.77697
553,34.74724
554,34.71751
555,34.68777
556,34.65804
557,34.62831
558,34.59857
559,34.56884
560,34.53911
561,34.50937
562,34.47964
563,34.44991
564,34.42017
565,34.39044
566,34.36071
567,34.33098
568,34.30124
569,34.27151
570,34.24178
571,34.21204
572,34.18231
573,34.15258
574,34.12284
575,34.09311
576,34.06338
577,34.03364
578,34.00391
579,33.97418
580,33.94444
581,33.91471
582,33.88498
583,33.85537
584,33.82643
585,33.79749
586,33.76856
587,33.73962
588,33.71068
589,33.68174
590,33.65280
591,33.62387
592,33.59493
593,33.56599
594,33.53705
595,33.50812
596,33.47918
597,33.45024
598,33.42130
599,33.39236
600,33.36343
601,33.33449
602,33.30555
603,33.27661
604,33.24768
605,33.21874
606,33.18980
607,33.16086
608,33.13192
609,33.10299
610,33.07405
611,33.04511
612,33.01617
613,32.98723
614,32.95830
615,32.92936
616,32.90042
617,32.87148
618,32.84255
619,32.81361
620,32.78467
621,32.75573
622,32.72679
623,32.69786
624,32.66892
625,32.63998
626,32.61104
627,32.58210
628,32.55317
629,32.52423
630,32.49529
631,32.46635
632,32.43742
633,32.40848
634,32.37954
635,32.35060
636,32.32166
637,32.29273
638,32.26379
639,32.23485
640,32.20591
641,32.17697
642,32.14804
643,32.11910
644,32.11241
645,32.14891
646,32.18540
647,32.22190
648,32.25839
649,32.29489
650,32.33139
651,32.36788
652,32.40438
653,32.44088
654,32.47737
655,32.51387
656,32.55036
657,32.58686
658,32.62336
659,32.65985
660,32.69635
661,32.73285
662,32.76934
663,32.80584
664,32.84234
665,32.87883
666,32.91533
667,32.95182
668,32.98832
669,33.02482
670,33.06131
671,33.09781
672,33.13431
673,33.17080
674,33.20730
675,33.24380
676,33.28029
677,33.31679
678,33.35328
679,33.38978
680,33.42628
681,33.46277
682,33.49927
683,33.53577
684,33.57226
685,33.60876
686,33.64526
687,33.68175
688,33.71825
689,33.75474
690,33.79124
691,33.82774
692,33.86423
693,33.90073
694,33.93723
695,33.97372
696,34.01022
697,34.04672
698,34.08321
699,34.11971
700,34.15620
701,34.19270
702,34.22920
703,34.26569
704,34.30219
705,34.33869
706,34.37518
707,34.42070
708,34.48538
709,34.55006
710,34.61475
711,34.67943
712,34.74411
713,34.80879
714,34.87348
715,34.93816
716,35.00284
717,35.06752
718,35.13221
719,35.19689
720,35.26157
721,35.32625
722,35.39094
723,35.45562
724,35.52030
725,35.58498
726,35.64967
727,35.71435
728,35.77903
729,35.84371
730,35.90840
731,35.97308
732,36.02358
733,35.97011
734,35.91664
735,35.86316
736,35.80969
737,35.75621
738,35.70274
739,35.64927
740,35.59579
741,35.54232
742,35.48884
743,35.43537
744,35.38190
745,35.32842
746,35.27495
747,35.22147
748,35.16800
749,35.11453
750,35.06105
751,35.00758
752,34.95410
753,34.90063
754,34.84716
755,34.79368
756,34.74021
757,34.68674
758,34.63326
759,34.57979
760,34.52631
761,34.47284
762,34.41937
763,34.36589
764,34.31242
765,34.25894
766,34.20547
767,34.15200
768,34.09852
769,34.04505
770,33.99157
771,33.93810
772,33.88463
773,33.83115
774,33.77768
775,33.72420
776,33.67073
777,33.61726
778,33.56378
779,33.51031
780,33.45683
781,33.40336
782,33.34989
783,33.29641
784,33.24294
785,33.18974
786,33.16341
787,33.13709
788,33.11077
789,33.08444
790,33.05812
791,33.03179
792,33.00547
793,32.97915
794,32.95282
795,32.92650
796,32.90018
797,32.87385
798,32.84753
799,32.82121
800,32.79488
801,32.76856
802,32.74223
803,32.71591
804,32.68959
805,32.66326
806,32.63694
807,32.61062
808,32.58429
809,32.55797
810,32.53165
811,32.50532
812,32.47900
813,32.45267
814,32.42635
815,32.40003
816,32.37370
817,32.34738
818,32.32106
819,32.29473
820,32.26841
821,32.24208
822,32.21576
823,32.18944
824,32.16311
825,32.13679
826,32.11047
827,32.08414
828,32.05782
829,32.03150
830,32.00517
831,31.97885
832,31.95252
833,31.92620
834,31.89988
835,31.87355
836,31.84723
837,31.82091
838,31.79458
839,31.76826
840,31.74194
841,31.71561
842,31.68929
843,31.66296
844,31.63664
845,31.61032
846,31.58399
847,31.55767
848,31.53135
849,31.50502
850,31.47870
851,31.45238
852,31.42564
853,31.39655
854,31.36746
855,31.33837
856,31.30928
857,31.28019
858,31.25110
859,31.22201
860,31.19291
861,31.16382
862,31.13473
863,31.10564
864,31.07655
865,31.04746
866,31.01837
867,30.98928
868,30.96019
869,30.93110
870,30.90201
871,30.87292
872,30.84383
873,30.81474
874,30.78565
875,30.75656
876,30.72747
877,30.69838
878,30.66929
879,30.64020
880,30.61111
881,30.58202
882,30.55293
883,30.52384
884,30.49475
885,30.46566
886,30.43657
887,30.40748
888,30.37839
889,30.34930
890,30.32021
891,30.29112
892,30.26203
893,30.23294
894,30.20385
895,30.17476
896,30.14567
897,30.11658
898,30.08749
899,30.05840
900,30.02931
901,30.00022
902,29.97113
903,29.94204
904,29.92198
905,29.90261
906,29.88324
907,29.86386
908,29.84449
909,29.82512
910,29.80574
911,29.78637
912,29.76700
913,29.74762
914,29.72825
915,29.70888
916,29.68950
917,29.67013
918,29.65076
919,29.63138
920,29.61201
921,29.59264
922,29.57326
923,29.55389
924,29.53452
925,29.51514
926,29.49577
927,29.47640
928,29.45702
929,29.43765
930,29.41828
931,29.39890
932,29.37953
933,29.36016
934,29.34078
935,29.32141
936,29.30204
937,29.28266
938,29.26329
939,29.24392
940,29.22454
941,29.20517
942,29.18580
943,29.16642
944,29.14705
945,29.12768
946,29.10830
947,29.08893
948,29.06956
949,29.05018
950,29.03081
951,29.01144
952,28.99206
953,28.97269
954,28.95332
955,28.93394
956,28.91457
957,28.89520
958,28.87582
959,28.85645
960,28.83708
961,28.81771
962,28.79833
963,28.77896
964,28.75959
965,28.74021
966,28.72084
967,28.70147
968,28.68209
969,28.66272
970,28.64335
971,28.62397
972,28.60460
973,28.58523
974,28.56585
975,28.54648
976,28.52711
977,28.50773
978,28.48836
979,28.46899
980,28.44792
981,28.34378
982,28.23964
983,28.13550
984,28.03136
985,27.92722
986,27.82308
987,27.71894
988,27.61480
989,27.51066
990,27.40652
991,27.30238
992,27.19824
993,27.09410
994,26.98996
995,26.88582
996,26.78168
997,26.67754
998,26.57340
999,26.46926
1000,26.36512
1001,26.26098
1002,26.15684
1003,26.05270
1004,25.94856
1005,25.84442
1006,25.74028
1007,25.63614
1008,25.53200
1009,25.42786
1010,25.32372
1011,25.21958
1012,25.11544
1013,25.01130
1014,24.90716
1015,24.80302
1016,24.69888
1017,24.59474
1018,24.49060
1019,24.38646
1020,24.28232
1021,24.17818
1022,24.07404
1023,23.96990
1024,23.86576
1025,23.76162
1026,23.65748
1027,23.57102
1028,23.57739
1029,23.58376
1030,23.59013
1031,23.59649
1032,23.60286
1033,23.60923
1034,23.61560
1035,23.62197
1036,23.62834
1037,23.63471
1038,23.64108
1039,23.64745
1040,23.65382
1041,23.66018
1042,23.66655
1043,23.67292
1044,23.67929
1045,23.68566
1046,23.69203
1047,23.69840
1048,23.70477
1049,23.71114
1050,23.71750
1051,23.72387
1052,23.73024
1053,23.73661
1054,23.74298
1055,23.74935
1056,23.75572
1057,23.76209
1058,23.76846
1059,23.77482
1060,23.78119
1061,23.78756
1062,23.79393
1063,23.80030
1064,23.80667
1065,23.81304
1066,23.81941
1067,23.82578
1068,23.83214
1069,23.83851
1070,23.84488
1071,23.85125
1072,23.85762
1073,23.86399
1074,23.87036
1075,23.87673
1076,23.88310
1077,23.88947
1078,23.89583
1079,23.90220
1080,23.90857
1081,23.91494
1082,23.92131
1083,23.92768
1084,23.93405
1085,23.94042
1086,23.94679
1087,23.95315
1088,23.95952
1089,23.96589
1090,23.97226
1091,23.97863
1092,23.98500
1093,23.99137
1094,23.99774
1095,24.00411
1096,24.01047
1097,24.01684
1098,24.02321
1099,24.02958
1100,24.03595
1101,24.04232
1102,24.04869
1103,24.05506
1104,24.06143
1105,24.06780
1106,24.07416
1107,24.08053
1108,24.08690
1109,24.09327
1110,24.09964
1111,24.10601
1112,24.11238
1113,24.11875
1114,24.12512
1115,24.13148
1116,24.13785
1117,24.14422
1118,24.15059
1119,24.15696
1120,24.16333
1121,24.16970
1122,24.17607
1123,24.18244
1124,24.18880
1125,24.19517
1126,24.20154
1127,24.20791
1128,24.21428
1129,24.22065
1130,24.22702
1131,24.23339
1132,24.23976
1133,24.24613
1134,24.25249
1135,24.25886
1136,24.26523
1137,24.27160
1138,24.27797
1139,24.28434
1140,24.29071
1141,24.29708
1142,24.30345
1143,24.30981
1144,24.31618
1145,24.32255
1146,24.32892
1147,24.33529
1148,24.34166
1149,24.34803
1150,24.35440
1151,24.36077
1152,24.36713
1153,24.37350
1154,24.37987
1155,24.37319
1156,24.36625
1157,24.35930
1158,24.35236
1159,24.34541
1160,24.33847
1161,24.33152
1162,24.32457
1163,24.31763
1164,24.31068
1165,24.30374
1166,24.29679
1167,24.28985
1168,24.28290
1169,24.27596
1170,24.26901
1171,24.26206
1172,24.25512
1173,24.24817
1174,24.24123
1175,24.23428
1176,24.22734
1177,24.22039
1178,24.21345
1179,24.20650
1180,24.19955
1181,24.19261
1182,24.18566
1183,24.17872
1184,24.17177
1185,24.16483
1186,24.15788
1187,24.15094
1188,24.14399
1189,24.13704
1190,24.13010
1191,24.12315
1192,24.11621
1193,24.10926
1194,24.10232
1195,24.09537
1196,24.08843
1197,24.08148
1198,24.07454
1199,24.06759
1200,24.06064
1201,24.05370
1202,24.04675
1203,24.03981
1204,24.03286
1205,24.02592
1206,24.01897
1207,24.01203
1208,24.00508
1209,23.99813
1210,23.99119
1211,23.98424
1212,23.97730
1213,23.97035
1214,23.96341
1215,23.95646
1216,23.94952
1217,23.94257
1218,23.93562
1219,23.92868
1220,23.92173
1221,23.91479
1222,23.90784
1223,23.90090
1224,23.89395
1225,23.88701
1226,23.88006
1227,23.87311
1228,23.86617
1229,23.85922
1230,23.85228
1231,23.84533
1232,23.83839
1233,23.83144
1234,23.82450
1235,23.81755
1236,23.81060
1237,23.80366
1238,23.79671
1239,23.78977
1240,23.78282
1241,23.77588
1242,23.76893
1243,23.76199
1244,23.75504
1245,23.74809
1246,23.74115
1247,23.73420
1248,23.72726
1249,23.72031
1250,23.71337
1251,23.70642
1252,23.69948
1253,23.69253
1254,23.68558
1255,23.67864
1256,23.67169
1257,23.66475
1258,23.65780
1259,23.65086
1260,23.64391
1261,23.63697
1262,23.63002
1263,23.62307
1264,23.61613
1265,23.60918
1266,23.60224
1267,23.59529
1268,23.58835
1269,23.58140
1270,23.57446
1271,23.56751
1272,23.56057
1273,23.55362
1274,23.54667
1275,23.53973
1276,23.53278
1277,23.52584
1278,23.51889
1279,23.51195
1280,23.50500
1281,23.49806
1282,23.49111
1283,23.48416
1284,23.47722
1285,23.47027
1286,23.46333
1287,23.45638
1288,23.44944
1289,23.44249
1290,23.43555
1291,23.42860
1292,23.42165
1293,23.41471
1294,23.40776
1295,23.40082
1296,23.39387
1297,23.38693
1298,23.37998
1299,23.37304
1300,23.36609
1301,23.35914
1302,23.35220
1303,23.34525
1304,23.33831
1305,23.33136
1306,23.32442
1307,23.31747
1308,23.31053
1309,23.30358
1310,23.29663
1311,23.28969
1312,23.28274
1313,23.27580
1314,23.26885
1315,23.26191
1316,23.25496
1317,23.24802
1318,23.24107
1319,23.23412
1320,23.22718
1321,23.22023
1322,23.21329
1323,23.20634
1324,23.19940
1325,23.19245
1326,23.18551
1327,23.17856
1328,23.17161
1329,23.16467
1330,23.15772
1331,23.15078
1332,23.14383
1333,23.13689
1334,23.12994
1335,23.12300
1336,23.11605
1337,23.10910
1338,23.10216
1339,23.09521
1340,23.08827
1341,23.08132
1342,23.07438
1343,23.06743
1344,23.06049
1345,23.05354
1346,23.04660
1347,23.03965
1348,23.03270
1349,23.02576
1350,23.01881
1351,23.01187
1352,23.00492
1353,22.99798
1354,22.99103
1355,22.98409
1356,22.97714
1357,22.97019
1358,22.96325
1359,22.95630
1360,22.94936
1361,22.94241
1362,22.93547
1363,22.92852
1364,22.92158
1365,22.91463
1366,22.90768
1367,22.90074
1368,22.89379
1369,22.88685
1370,22.87990
1371,22.87296
1372,22.86601
1373,22.85907
1374,22.85212
1375,22.84517
1376,22.83823
1377,22.83128
1378,22.82434
1379,22.81739
1380,22.81045
1381,22.80350
1382,22.79656
1383,22.78961
1384,22.78266
1385,22.77572
1386,22.76877
1387,22.76183
1388,22.75488
1389,22.74794
1390,22.74099
1391,22.73405
1392,22.72710
1393,22.72015
1394,22.71321
1395,22.70626
1396,22.69932
1397,22.69237
1398,22.68543
1399,22.67848
1400,22.67154
1401,22.66459
1402,22.65764
1403,22.65070
1404,22.64375
1405,22.63681
1406,22.62986
1407,22.62292
1408,22.63059
1409,22.64884
1410,22.66710
1411,22.68535
1412,22.70361
1413,22.72186
1414,22.74012
1415,22.75838
1416,22.77663
1417,22.79489
1418,22.81314
1419,22.83140
1420,22.84965
1421,22.86791
1422,22.88616
1423,22.90442
1424,22.92267
1425,22.94093
1426,22.95918
1427,22.97744
1428,22.99569
1429,23.01395
1430,23.03221
1431,23.05046
1432,23.06872
1433,23.08697
1434,23.10523
1435,23.12348
1436,23.14174
1437,23.15999
1438,23.17825
1439,23.19650
1440,23.21476
1441,23.23301
1442,23.25127
1443,23.26952
1444,23.28778
1445,23.30604
1446,23.32429
1447,23.34255
1448,23.36080
1449,23.37906
1450,23.39731
1451,23.41557
1452,23.43382
1453,23.45208
1454,23.47033
1455,23.48859
1456,23.50684
1457,23.52510
1458,23.54336
1459,23.56161
1460,23.57987
1461,23.59812
1462,23.61638
1463,23.63463
1464,23.65289
1465,23.67114
1466,23.68940
1467,23.70765
1468,23.72591
1469,23.74416
1470,23.76242
1471,23.78067
1472,23.79893
1473,23.81719
1474,23.83544
1475,23.85370
1476,23.87195
1477,23.89021
1478,23.90846
1479,23.92672
1480,23.94497
1481,23.96323
1482,23.98148
1483,23.99974
1484,24.01799
1485,24.03625
1486,24.05450
1487,24.07276
1488,24.09102
1489,24.10927
1490,24.12753
1491,24.14578
1492,24.16404
1493,24.18229
1494,24.20055
1495,24.21880
1496,24.23706
1497,24.25531
1498,24.27357
1499,24.29182
1500,24.31008
1501,24.32833
1502,24.34659
1503,24.36485
1504,24.38310
1505,24.40136
1506,24.41961
1507,24.43787
1508,24.45612
1509,24.47438
1510,24.49263
1511,24.51089
1512,24.52914
1513,24.54740
1514,24.56565
1515,24.58391
1516,24.60216
1517,24.62042
1518,24.63868
1519,24.65693
1520,24.67519
1521,24.69344
