Frequency (Hz),dB (Relative)
20,1.90000
21,2.09818
22,2.29636
23,2.49455
24,2.69273
25,2.89091
26,3.00494
27,3.03483
28,3.06471
29,3.09460
30,3.15446
31,3.38419
32,3.61392
33,3.84365
34,4.07338
35,4.30311
36,4.40552
37,4.08171
38,3.75790
39,3.43410
40,3.12000
41,3.12000
42,3.12000
43,3.12000
44,3.12000
45,3.26475
46,3.43307
47,3.60139
48,3.76970
49,3.92438
50,4.07607
51,4.22775
52,4.37944
53,4.53112
54,4.78405
55,5.14664
56,5.50924
57,5.87183
58,6.23443
59,6.54982
60,6.71571
61,6.88161
62,7.04751
63,7.21341
64,7.37931
65,7.54521
66,7.49407
67,7.36266
68,7.23125
69,7.12063
70,7.02331
71,6.92599
72,6.82866
73,6.75193
74,6.69580
75,6.63967
76,6.58353
77,6.52740
78,6.47368
79,6.42105
80,6.36842
81,6.31579
82,6.26316
83,6.21472
84,6.16957
85,6.12441
86,6.07926
87,6.03411
88,5.98896
89,5.97817
90,5.99225
91,6.00634
92,6.02042
93,6.03451
94,6.04859
95,6.06268
96,6.07676
97,6.09085
98,6.11951
99,6.17527
100,6.23103
101,6.28678
102,6.34254
103,6.39830
104,6.45405
105,6.50981
106,6.56557
107,6.62132
108,6.67708
109,6.73283
110,6.78859
111,6.84435
112,6.90010
113,6.95586
114,7.01162
115,7.06737
116,7.12313
117,7.17888
118,7.26482
119,7.35136
120,7.43791
121,7.52445
122,7.61100
123,7.69755
124,7.78409
125,7.87064
126,7.95719
127,8.04373
128,8.13028
129,8.21683
130,8.30337
131,8.38992
132,8.47647
133,8.56301
134,8.64956
135,8.73611
136,8.82265
137,8.90920
138,8.99574
139,9.08229
140,9.16884
141,9.25538
142,9.34193
143,9.42848
144,9.51502
145,9.60157
146,9.68812
147,9.77466
148,9.86121
149,9.94776
150,10.03430
151,10.12085
152,10.20740
153,10.29394
154,10.25721
155,10.21119
156,10.16518
157,10.11917
158,10.07315
159,10.02714
160,9.98113
161,9.93511
162,9.88910
163,9.84309
164,9.79707
165,9.75106
166,9.70504
167,9.65903
168,9.61302
169,9.56700
170,9.52099
171,9.47498
172,9.42896
173,9.38295
174,9.33694
175,9.29092
176,9.24491
177,9.19890
178,9.15288
179,9.10687
180,9.06085
181,9.01484
182,8.96883
183,8.92281
184,8.87680
185,8.83079
186,8.78477
187,8.73876
188,8.69275
189,8.64673
190,8.60072
191,8.55471
192,8.50869
193,8.46268
194,8.41666
195,8.37065
196,8.32464
197,8.27862
198,8.23261
199,8.18660
200,8.14058
201,8.15680
202,8.19159
203,8.22639
204,8.26119
205,8.29599
206,8.33079
207,8.36559
208,8.40039
209,8.43519
210,8.46999
211,8.50479
212,8.53959
213,8.57439
214,8.60919
215,8.64399
216,8.67879
217,8.71358
218,8.74838
219,8.78318
220,8.81798
221,8.85278
222,8.88758
223,8.92238
224,8.95718
225,8.99198
226,9.02678
227,9.06158
228,9.09638
229,9.13118
230,9.16598
231,9.20077
232,9.23557
233,9.27037
234,9.30517
235,9.33997
236,9.37477
237,9.40957
238,9.44437
239,9.47917
240,9.51397
241,9.54877
242,9.58357
243,9.61837
244,9.65317
245,9.68797
246,9.72276
247,9.75756
248,9.74516
249,9.72920
250,9.71324
251,9.69727
252,9.68131
253,9.66535
254,9.64939
255,9.63343
256,9.61747
257,9.60151
258,9.58555
259,9.56959
260,9.55363
261,9.53767
262,9.52171
263,9.50575
264,9.48979
265,9.47383
266,9.45787
267,9.44191
268,9.42594
269,9.40998
270,9.39402
271,9.37806
272,9.36210
273,9.34614
274,9.33018
275,9.31422
276,9.29826
277,9.28230
278,9.26634
279,9.25038
280,9.23442
281,9.21846
282,9.20250
283,9.18654
284,9.17058
285,9.15461
286,9.13865
287,9.12269
288,9.10673
289,9.09077
290,9.07481
291,9.05885
292,9.04289
293,9.02693
294,9.01097
295,8.99501
296,8.97905
297,8.96309
298,8.94120
299,8.89229
300,8.84338
301,8.79448
302,8.74557
303,8.69667
304,8.64776
305,8.59885
306,8.54995
307,8.50104
308,8.45214
309,8.40323
310,8.35432
311,8.30542
312,8.25651
313,8.20761
314,8.15870
315,8.10979
316,8.06089
317,8.01198
318,7.96308
319,7.91417
320,7.86526
321,7.81636
322,7.76745
323,7.71855
324,7.66964
325,7.62073
326,7.57183
327,7.52292
328,7.47402
329,7.42511
330,7.37620
331,7.32730
332,7.27839
333,7.22949
334,7.18058
335,7.13167
336,7.08277
337,7.04323
338,7.02273
339,7.00222
340,6.98171
341,6.96121
342,6.94070
343,6.92019
344,6.89969
345,6.87918
346,6.85868
347,6.83817
348,6.81766
349,6.79716
350,6.77665
351,6.75614
352,6.73564
353,6.71513
354,6.69463
355,6.67412
356,6.65361
357,6.63311
358,6.61260
359,6.59209
360,6.57159
361,6.55108
362,6.53057
363,6.51007
364,6.48956
365,6.46906
366,6.44855
367,6.42804
368,6.40754
369,6.38703
370,6.36652
371,6.34602
372,6.32551
373,6.30501
374,6.28450
375,6.26399
376,6.24349
377,6.23785
378,6.23526
379,6.23267
380,6.23008
381,6.22749
382,6.22490
383,6.22231
384,6.21972
385,6.21713
386,6.21454
387,6.21195
388,6.20936
389,6.20677
390,6.20418
391,6.20159
392,6.19900
393,6.19642
394,6.19383
395,6.19124
396,6.18865
397,6.18606
398,6.18347
399,6.18088
400,6.17829
401,6.17570
402,6.17311
403,6.17052
404,6.16793
405,6.16534
406,6.16275
407,6.16016
408,6.15757
409,6.15498
410,6.15239
411,6.14980
412,6.14721
413,6.14462
414,6.14203
415,6.13944
416,6.13685
417,6.13426
418,6.13167
419,6.12908
420,6.12649
421,6.12390
422,6.12131
423,6.11872
424,6.11613
425,6.11354
426,6.11095
427,6.10836
428,6.10578
429,6.10319
430,6.10060
431,6.10398
432,6.10914
433,6.11431
434,6.11947
435,6.12464
436,6.12981
437,6.13497
438,6.14014
439,6.14530
440,6.15047
441,6.15563
442,6.16080
443,6.16597
444,6.17113
445,6.17630
446,6.18146
447,6.18663
448,6.19179
449,6.19696
450,6.20213
451,6.20729
452,6.21246
453,6.21762
454,6.22279
455,6.22795
456,6.23312
457,6.23829
458,6.24345
459,6.24862
460,6.25378
461,6.25895
462,6.26411
463,6.26928
464,6.27445
465,6.27961
466,6.28478
467,6.28994
468,6.29511
469,6.30027
470,6.30544
471,6.31060
472,6.31577
473,6.32094
474,6.32610
475,6.33127
476,6.33643
477,6.34160
478,6.34676
479,6.35193
480,6.35710
481,6.36226
482,6.36743
483,6.37259
484,6.37776
485,6.38292
486,6.38809
487,6.39326
488,6.39842
489,6.40359
490,6.40875
491,6.41392
492,6.41908
493,6.42425
494,6.42942
495,6.43458
496,6.43975
497,6.44491
498,6.45008
499,6.45524
500,6.46041
501,6.46558
502,6.47074
503,6.47591
504,6.48107
505,6.48624
506,6.49140
507,6.49657
508,6.50173
509,6.50690
510,6.53746
511,6.60611
512,6.67475
513,6.74340
514,6.81205
515,6.88070
516,6.94935
517,7.01799
518,7.08664
519,7.15529
520,7.22394
521,7.29258
522,7.36123
523,7.42988
524,7.49853
525,7.56718
526,7.63582
527,7.70447
528,7.77312
529,7.84177
530,7.91041
531,7.97906
532,8.04771
533,8.11636
534,8.18501
535,8.25365
536,8.32230
537,8.39095
538,8.45960
539,8.52824
540,8.59689
541,8.66554
542,8.73419
543,8.80284
544,8.87148
545,8.94013
546,9.00878
547,9.07743
548,9.14607
549,9.21472
550,9.28337
551,9.35202
552,9.42067
553,9.48931
554,9.58623
555,9.68343
556,9.78063
557,9.87783
558,9.97503
559,10.07224
560,10.16944
561,10.26664
562,10.36384
563,10.46104
564,10.55824
565,10.65544
566,10.75264
567,10.84984
568,10.94705
569,11.04425
570,11.14145
571,11.23865
572,11.33585
573,11.43305
574,11.53025
575,11.62745
576,11.72466
577,11.82186
578,11.91906
579,12.01626
580,12.09631
581,12.16232
582,12.22834
583,12.29436
584,12.36037
585,12.42639
586,12.49241
587,12.55842
588,12.62444
589,12.69045
590,12.75647
591,12.82249
592,12.88850
593,12.95452
594,13.02053
595,13.08655
596,13.15257
597,13.21858
598,13.28460
599,13.35061
600,13.41663
601,13.48265
602,13.54866
603,13.61468
604,13.68069
605,13.74671
606,13.81273
607,13.87874
608,13.94476
609,14.01077
610,14.07679
611,14.14281
612,14.20882
613,14.27484
614,14.34086
615,14.39384
616,14.44149
617,14.48915
618,14.53681
619,14.58447
620,14.63213
621,14.67978
622,14.72744
623,14.77510
624,14.82276
625,14.87041
626,14.91807
627,14.96573
628,15.01339
629,15.06105
630,15.10870
631,15.15636
632,15.20402
633,15.25168
634,15.29933
635,15.34699
636,15.39465
637,15.44231
638,15.48996
639,15.53762
640,15.58528
641,15.63294
642,15.68060
643,15.72825
644,15.77591
645,15.82357
646,15.87123
647,15.91888
648,15.96654
649,16.01420
650,16.06186
651,16.10952
652,16.15350
653,16.19646
654,16.23941
655,16.28237
656,16.32532
657,16.36827
658,16.41123
659,16.45418
660,16.49713
661,16.54009
662,16.58304
663,16.62600
664,16.66895
665,16.71190
666,16.75486
667,16.79781
668,16.84077
669,16.88372
670,16.92667
671,16.96963
672,17.01258
673,17.05554
674,17.09849
675,17.14144
676,17.18440
677,17.22735
678,17.27030
679,17.31326
680,17.35621
681,17.39917
682,17.44212
683,17.48507
684,17.52803
685,17.57098
686,17.61394
687,17.65689
688,17.69984
689,17.74280
690,17.78575
691,17.82871
692,17.87166
693,17.91461
694,17.95757
695,18.00052
696,18.04347
697,18.08643
698,18.12938
699,18.13663
700,18.11090
701,18.08518
702,18.05946
703,18.03374
704,18.00802
705,17.98230
706,17.95658
707,17.93086
708,17.90514
709,17.87942
710,17.85370
711,17.82798
712,17.80226
713,17.77654
714,17.75082
715,17.72510
716,17.69938
717,17.67366
718,17.64794
719,17.62222
720,17.59650
721,17.57078
722,17.54506
723,17.51934
724,17.49362
725,17.46789
726,17.44217
727,17.41645
728,17.39073
729,17.36501
730,17.33929
731,17.31357
732,17.28785
733,17.26213
734,17.23641
735,17.21069
736,17.18497
737,17.15925
738,17.13353
739,17.10781
740,17.08209
741,17.05403
742,17.02391
743,16.99378
744,16.96366
745,16.93353
746,16.90341
747,16.87328
748,16.84316
749,16.81303
750,16.78291
751,16.75278
752,16.72266
753,16.69253
754,16.66241
755,16.63228
756,16.60215
757,16.57203
758,16.54190
759,16.51178
760,16.48165
761,16.45153
762,16.42140
763,16.39128
764,16.36115
765,16.33103
766,16.30090
767,16.27078
768,16.24065
769,16.21053
770,16.18040
771,16.15028
772,16.12015
773,16.09003
774,16.05990
775,16.02977
776,15.99965
777,15.96952
778,15.93940
779,15.90927
780,15.87915
781,15.84902
782,15.81890
783,15.78877
784,15.75865
785,15.72852
786,15.69840
787,15.66827
788,15.63815
789,15.60802
790,15.57790
791,15.54777
792,15.51765
793,15.48752
794,15.45739
795,15.42727
796,15.39714
797,15.36702
798,15.33689
799,15.30677
800,15.27664
801,15.24652
802,15.21639
803,15.18627
804,15.16301
805,15.14781
806,15.13262
807,15.11742
808,15.10222
809,15.08702
810,15.07183
811,15.05663
812,15.04143
813,15.02624
814,15.01104
815,14.99584
816,14.98065
817,14.96545
818,14.95025
819,14.93505
820,14.91986
821,14.90466
822,14.88946
823,14.87427
824,14.85907
825,14.84387
826,14.82868
827,14.81348
828,14.79828
829,14.78308
830,14.76789
831,14.75269
832,14.73749
833,14.72230
834,14.70710
835,14.69190
836,14.67671
837,14.66151
838,14.64631
839,14.63111
840,14.61592
841,14.60072
842,14.58552
843,14.57033
844,14.55513
845,14.53993
846,14.52474
847,14.50954
848,14.49434
849,14.47914
850,14.46395
851,14.44875
852,14.43355
853,14.41836
854,14.40316
855,14.38796
856,14.37277
857,14.35629
858,14.33310
859,14.30991
860,14.28673
861,14.26354
862,14.24035
863,14.21716
864,14.19398
865,14.17079
866,14.14760
867,14.12441
868,14.10123
869,14.07804
870,14.05485
871,14.03166
872,14.00847
873,13.98529
874,13.96210
875,13.93891
876,13.91572
877,13.89254
878,13.86935
879,13.84616
880,13.82297
881,13.79979
882,13.77660
883,13.75341
884,13.73022
885,13.70703
886,13.68385
887,13.66066
888,13.63747
889,13.61428
890,13.59110
891,13.56791
892,13.54472
893,13.52153
894,13.49835
895,13.47516
896,13.45197
897,13.42878
898,13.40926
899,13.40536
900,13.40146
901,13.39756
902,13.39367
903,13.38977
904,13.38587
905,13.38197
906,13.37807
907,13.37417
908,13.37027
909,13.36638
910,13.36248
911,13.35858
912,13.35468
913,13.35078
914,13.34688
915,13.34298
916,13.33909
917,13.33519
918,13.33129
919,13.32739
920,13.32349
921,13.31959
922,13.31569
923,13.31180
924,13.30790
925,13.30400
926,13.30010
927,13.29620
928,13.29230
929,13.28841
930,13.28451
931,13.28061
932,13.27671
933,13.27281
934,13.26891
935,13.26501
936,13.26112
937,13.25722
938,13.25332
939,13.24942
940,13.24552
941,13.24162
942,13.23772
943,13.23383
944,13.22993
945,13.22603
946,13.22213
947,13.21823
948,13.21433
949,13.21043
950,13.20654
951,13.20264
952,13.19874
953,13.19484
954,13.19094
955,13.18704
956,13.18315
957,13.17925
958,13.17535
959,13.17145
960,13.16755
961,13.16365
962,13.15975
963,13.15586
964,13.15196
965,13.14806
966,13.14416
967,13.14026
968,13.13636
969,13.13246
970,13.12857
971,13.12467
972,13.12077
973,13.11687
974,13.11297
975,13.10907
976,13.10517
977,13.10128
978,13.09738
979,13.09348
980,13.08958
981,13.08568
982,13.08178
983,13.07788
984,13.07399
985,13.07009
986,13.06619
987,13.06229
988,13.05839
989,13.05449
990,13.05060
991,13.04670
992,13.04280
993,13.03890
994,13.03500
995,13.03110
996,13.02720
997,13.02331
998,13.01941
999,13.01551
1000,13.01161
1001,13.00771
1002,13.00381
1003,12.99991
1004,12.99602
1005,12.99212
1006,12.98822
1007,12.98432
1008,12.98042
1009,12.97652
1010,12.97262
1011,12.96873
1012,12.96483
1013,12.96093
1014,12.95703
1015,12.95313
1016,12.94923
1017,12.94534
1018,12.94144
1019,12.93754
1020,12.93364
1021,12.92974
1022,12.92584
1023,12.92194
1024,12.91805
1025,12.91415
1026,12.91025
1027,12.90635
1028,12.90245
1029,12.89855
1030,12.89465
1031,12.89076
1032,12.88686
1033,12.88296
1034,12.87906
1035,12.87516
1036,12.87126
1037,12.86736
1038,12.86347
1039,12.85957
1040,12.85567
1041,12.85177
1042,12.84787
1043,12.84397
1044,12.84008
1045,12.83618
1046,12.83228
1047,12.82838
1048,12.82448
1049,12.82058
1050,12.81668
1051,12.81279
1052,12.80889
1053,12.80499
1054,12.80109
1055,12.79719
1056,12.79329
1057,12.78939
1058,12.78550
1059,12.78160
1060,12.77770
1061,12.77380
1062,12.76990
1063,12.76600
1064,12.76210
1065,12.75821
1066,12.75431
1067,12.75041
1068,12.74651
1069,12.74261
1070,12.74293
1071,12.75179
1072,12.76065
1073,12.76952
1074,12.77838
1075,12.78724
1076,12.79611
1077,12.80497
1078,12.81384
1079,12.82270
1080,12.83156
1081,12.84043
1082,12.84929
1083,12.85815
1084,12.86702
1085,12.87588
1086,12.88475
1087,12.89361
1088,12.90247
1089,12.91134
1090,12.92020
1091,12.92906
1092,12.93793
1093,12.94679
1094,12.95566
1095,12.96452
1096,12.97338
1097,12.98225
1098,12.99111
1099,12.99997
1100,13.00884
1101,13.01770
1102,13.02657
1103,13.03543
1104,13.04429
1105,13.05316
1106,13.06202
1107,13.07088
1108,13.07975
1109,13.08861
1110,13.09748
1111,13.10634
1112,13.11520
1113,13.12407
1114,13.13293
1115,13.14179
1116,13.15066
1117,13.15952
1118,13.16839
1119,13.17725
1120,13.18611
1121,13.19498
1122,13.20384
1123,13.21270
1124,13.22157
1125,13.23043
1126,13.23930
1127,13.24816
1128,13.25702
1129,13.26589
1130,13.27475
1131,13.28362
1132,13.29248
1133,13.30134
1134,13.31021
1135,13.31907
1136,13.32793
1137,13.33680
1138,13.34566
1139,13.35453
1140,13.36339
1141,13.37225
1142,13.38112
1143,13.38998
1144,13.39884
1145,13.40771
1146,13.41657
1147,13.42544
1148,13.43430
1149,13.44316
1150,13.45203
1151,13.46089
1152,13.46975
1153,13.47862
1154,13.48748
1155,13.49635
1156,13.50521
1157,13.51407
1158,13.52294
1159,13.53180
1160,13.54066
1161,13.54953
1162,13.55839
1163,13.56726
1164,13.57612
1165,13.58498
1166,13.59385
1167,13.60271
1168,13.61157
1169,13.62044
1170,13.62930
1171,13.63817
1172,13.64703
1173,13.65589
1174,13.66476
1175,13.67362
1176,13.68248
1177,13.69135
1178,13.70021
1179,13.70908
1180,13.71794
1181,13.72680
1182,13.73567
1183,13.74453
1184,13.75340
1185,13.76226
1186,13.77112
1187,13.77999
1188,13.78885
1189,13.79771
1190,13.80658
1191,13.81544
1192,13.82431
1193,13.83317
1194,13.84203
1195,13.85090
1196,13.85976
1197,13.86862
1198,13.87749
1199,13.88635
1200,13.89522
1201,13.90408
1202,13.91294
1203,13.92181
1204,13.93067
1205,13.93953
1206,13.94840
1207,13.95726
1208,13.96613
1209,13.97499
1210,13.98385
1211,13.99272
1212,14.00158
1213,14.01044
1214,14.01931
1215,14.02817
1216,14.03704
1217,14.04590
1218,14.05476
1219,14.06363
1220,14.07249
1221,14.08135
1222,14.09022
1223,14.09908
1224,14.10795
1225,14.11681
1226,14.12567
1227,14.13454
1228,14.14340
1229,14.15226
1230,14.16113
1231,14.16999
1232,14.17886
1233,14.18772
1234,14.19658
1235,14.20545
1236,14.21431
1237,14.22317
1238,14.23418
1239,14.25233
1240,14.27048
1241,14.28864
1242,14.30679
1243,14.32495
1244,14.34310
1245,14.36126
1246,14.37941
1247,14.39757
1248,14.41572
1249,14.43387
1250,14.45203
1251,14.47018
1252,14.48834
1253,14.50649
1254,14.52465
1255,14.54280
1256,14.56096
1257,14.57911
1258,14.59727
1259,14.61542
1260,14.63357
1261,14.65173
1262,14.66988
1263,14.68804
1264,14.70619
1265,14.72435
1266,14.74250
1267,14.76066
1268,14.77881
1269,14.79696
1270,14.81512
1271,14.83327
1272,14.85143
1273,14.86958
1274,14.88774
1275,14.90589
1276,14.92405
1277,14.94220
1278,14.96035
1279,14.97851
1280,14.99666
1281,15.01482
1282,15.03297
1283,15.05113
1284,15.06928
1285,15.08744
1286,15.10559
1287,15.12374
1288,15.14190
1289,15.16005
1290,15.17821
1291,15.19636
1292,15.21452
1293,15.23267
1294,15.25083
1295,15.26898
1296,15.28714
1297,15.30529
1298,15.32344
1299,15.34160
1300,15.35975
1301,15.37791
1302,15.39606
1303,15.41422
1304,15.43237
1305,15.45053
1306,15.46868
1307,15.48683
1308,15.50499
1309,15.52314
1310,15.54130
1311,15.55945
1312,15.57761
1313,15.59576
1314,15.61392
1315,15.63207
1316,15.65022
1317,15.66838
1318,15.68653
1319,15.70469
1320,15.72284
1321,15.74100
1322,15.75915
1323,15.77731
1324,15.79546
1325,15.81361
1326,15.83177
1327,15.84992
1328,15.86808
1329,15.88623
1330,15.90439
1331,15.92254
1332,15.94070
1333,15.95885
1334,15.97701
1335,15.99516
1336,16.01331
1337,16.03147
1338,16.04962
1339,16.06778
1340,16.08593
1341,16.10409
1342,16.12224
1343,16.14040
1344,16.15855
1345,16.17670
1346,16.19486
1347,16.21301
1348,16.23117
1349,16.24932
1350,16.26748
1351,16.28563
1352,16.30379
1353,16.32194
1354,16.34009
1355,16.35825
1356,16.37640
1357,16.39456
1358,16.41271
1359,16.43087
1360,16.44902
1361,16.46718
1362,16.48533
1363,16.50348
1364,16.52164
1365,16.53979
1366,16.55795
1367,16.57610
1368,16.59426
1369,16.61241
1370,16.63057
1371,16.64872
1372,16.66688
1373,16.68503
1374,16.70318
1375,16.72134
1376,16.73949
1377,16.75765
1378,16.77580
1379,16.79396
1380,16.81211
1381,16.83027
1382,16.84842
1383,16.86657
1384,16.88473
1385,16.90288
1386,16.92104
1387,16.93919
1388,16.95735
1389,16.97550
1390,16.99366
1391,17.01181
1392,17.02996
1393,17.04812
1394,17.06627
1395,17.08443
1396,17.10258
1397,17.12074
1398,17.13889
1399,17.15705
1400,17.17520
1401,17.19335
1402,17.21151
1403,17.22966
1404,17.24782
1405,17.26597
1406,17.28413
1407,17.30228
1408,17.32044
1409,17.33859
1410,17.35675
1411,17.37490
1412,17.39305
1413,17.41121
1414,17.42936
1415,17.44752
1416,17.46567
1417,17.48383
1418,17.50198
1419,17.52014
1420,17.53829
1421,17.55644
1422,17.57460
1423,17.59275
1424,17.60868
1425,17.58224
1426,17.55580
1427,17.52937
1428,17.50293
1429,17.47649
1430,17.45006
1431,17.42362
1432,17.39718
1433,17.37075
1434,17.34431
1435,17.31787
1436,17.29144
1437,17.26500
1438,17.23856
1439,17.21213
1440,17.18569
1441,17.15925
1442,17.13282
1443,17.10638
1444,17.07994
1445,17.05351
1446,17.02707
1447,17.00063
1448,16.97420
1449,16.94776
1450,16.92132
1451,16.89489
1452,16.86845
1453,16.84201
1454,16.81558
1455,16.78914
1456,16.76270
1457,16.73627
1458,16.70983
1459,16.68339
1460,16.65696
1461,16.63052
1462,16.60408
1463,16.57765
1464,16.55121
1465,16.52477
1466,16.49834
1467,16.47190
1468,16.44546
1469,16.41903
1470,16.39259
1471,16.36615
1472,16.33972
1473,16.31328
1474,16.28684
1475,16.26041
1476,16.23397
1477,16.20753
1478,16.18110
1479,16.15466
1480,16.12822
1481,16.10179
1482,16.07535
1483,16.04891
1484,16.02248
1485,15.99604
1486,15.96960
1487,15.94317
1488,15.91673
1489,15.89029
1490,15.86386
1491,15.83742
1492,15.81098
1493,15.78455
1494,15.75811
1495,15.73167
1496,15.70524
1497,15.67880
1498,15.65236
1499,15.62593
1500,15.59949
1501,15.57305
1502,15.54662
1503,15.52018
1504,15.49374
1505,15.46731
1506,15.44087
1507,15.41443
1508,15.38800
1509,15.36156
1510,15.33512
1511,15.30869
1512,15.28225
1513,15.25581
1514,15.22938
1515,15.20294
1516,15.17650
1517,15.15007
1518,15.12363
1519,15.09719
1520,15.07076
1521,15.04432
1522,15.01788
1523,14.99145
1524,14.96501
1525,14.93857
1526,14.91214
1527,14.88570
1528,14.85926
1529,14.83283
1530,14.80639
1531,14.77995
1532,14.75352
1533,14.72708
1534,14.70064
1535,14.67421
1536,14.64777
1537,14.62133
1538,14.59490
1539,14.56846
1540,14.54202
1541,14.51559
1542,14.48915
1543,14.46271
1544,14.43628
1545,14.40984
1546,14.38340
1547,14.35697
1548,14.33053
1549,14.30409
1550,14.27766
1551,14.25122
1552,14.22478
1553,14.19835
1554,14.17191
1555,14.14547
1556,14.11904
1557,14.09260
1558,14.06616
1559,14.03973
