Frequency (Hz),dB (Relative)
20,4.88000
21,5.90597
22,6.93195
23,7.95792
24,8.98390
25,9.17939
26,8.01988
27,8.29006
28,9.03682
29,9.78357
30,10.37661
31,10.89393
32,11.41125
33,11.92858
34,12.44590
35,12.96323
36,13.48055
37,13.99787
38,14.47306
39,14.84994
40,15.22681
41,15.60368
42,15.98056
43,16.37468
44,16.77894
45,17.18319
46,17.58745
47,17.99170
48,18.32059
49,18.64380
50,18.96701
51,19.29022
52,19.65378
53,20.10308
54,20.55238
55,21.00168
56,21.45098
57,21.90028
58,22.32993
59,22.74649
60,23.16304
61,23.57960
62,23.99615
63,24.41271
64,24.82927
65,25.25649
66,25.77005
67,26.28362
68,26.79718
69,27.31074
70,27.82430
71,28.04000
72,28.04000
73,28.04000
74,28.04000
75,28.04000
76,27.95727
77,27.86636
78,27.77545
79,27.68455
80,27.55526
81,27.36841
82,27.18156
83,26.99471
84,26.80785
85,26.62100
86,26.30382
87,25.90676
88,25.50971
89,25.11265
90,25.09260
91,25.39372
92,25.69483
93,25.99595
94,26.29706
95,26.57512
96,26.73209
97,26.88907
98,27.04605
99,27.20302
100,27.36000
101,27.51698
102,27.49285
103,27.00302
104,26.51320
105,26.02337
106,25.53354
107,25.04372
108,24.55389
109,24.06406
110,23.57424
111,23.08441
112,22.59458
113,22.10476
114,21.61493
115,21.13126
116,21.25752
117,21.38378
118,21.51003
119,21.63629
120,21.76254
121,21.88880
122,22.01506
123,22.14131
124,22.26757
125,22.39383
126,22.52008
127,22.64634
128,22.77260
129,22.89885
130,23.02511
131,23.15137
132,23.27762
133,23.40388
134,23.53013
135,23.65639
136,23.78265
137,23.90890
138,24.03516
139,24.16142
140,24.28767
141,24.41393
142,24.54019
143,24.66644
144,24.79270
145,24.91896
146,25.04521
147,25.17147
148,25.29772
149,25.42398
150,25.55024
151,25.67649
152,25.80275
153,25.92901
154,26.05526
155,26.18152
156,26.27050
157,26.22734
158,26.18417
159,26.14100
160,26.09784
161,26.05467
162,26.01150
163,25.96834
164,25.92517
165,25.88200
166,25.83884
167,25.79567
168,25.75250
169,25.70934
170,25.66617
171,25.62300
172,25.57984
173,25.53667
174,25.49350
175,25.45034
176,25.40717
177,25.36400
178,25.32084
179,25.27767
180,25.23450
181,25.19134
182,25.14817
183,25.10500
184,25.06184
185,25.01867
186,24.97550
187,24.93234
188,24.88917
189,24.84601
190,24.80284
191,24.75967
192,24.71651
193,24.67334
194,24.63017
195,24.58701
196,24.54384
197,24.50067
198,24.45751
199,24.41434
200,24.37117
201,24.32801
202,24.28484
203,24.24167
204,24.19851
205,24.15534
206,24.11217
207,24.06901
208,24.02584
209,23.98267
210,23.93951
211,23.89634
212,23.85317
213,23.81001
214,23.76684
215,23.72367
216,23.68051
217,23.63734
218,23.59417
219,23.56380
220,23.54971
221,23.53563
222,23.52154
223,23.50745
224,23.49337
225,23.47928
226,23.46519
227,23.45111
228,23.43702
229,23.42293
230,23.40885
231,23.39476
232,23.38067
233,23.36658
234,23.35250
235,23.33841
236,23.32432
237,23.31024
238,23.29615
239,23.28206
240,23.26798
241,23.25389
242,23.23980
243,23.22571
244,23.21163
245,23.19754
246,23.18345
247,23.16937
248,23.15528
249,23.14119
250,23.12711
251,23.11302
252,23.09893
253,23.08485
254,23.07076
255,23.05667
256,23.04258
257,23.02850
258,23.01441
259,23.00032
260,22.98624
261,22.97215
262,22.95806
263,22.94398
264,22.92989
265,22.91580
266,22.90171
267,22.88763
268,22.87354
269,22.85945
270,22.84537
271,22.83128
272,22.81719
273,22.80311
274,22.78902
275,22.77493
276,22.76085
277,22.75650
278,22.75279
279,22.74907
280,22.74535
281,22.74163
282,22.73791
283,22.73419
284,22.73048
285,22.72676
286,22.72304
287,22.71932
288,22.71560
289,22.71188
290,22.70816
291,22.70445
292,22.70073
293,22.69701
294,22.69329
295,22.68957
296,22.68585
297,22.68213
298,22.67842
299,22.67470
300,22.67098
301,22.66726
302,22.66354
303,22.65982
304,22.65611
305,22.65239
306,22.64867
307,22.64495
308,22.64123
309,22.63751
310,22.63379
311,22.63008
312,22.62636
313,22.62264
314,22.61892
315,22.61520
316,22.61148
317,22.60776
318,22.60405
319,22.60033
320,22.59661
321,22.59289
322,22.58917
323,22.58545
324,22.58174
325,22.57802
326,22.57430
327,22.57058
328,22.56686
329,22.56314
330,22.55942
331,22.55571
332,22.55199
333,22.54827
334,22.54455
335,22.54083
336,22.53711
337,22.53339
338,22.52968
339,22.52596
340,22.52224
341,22.51852
342,22.51480
343,22.51108
344,22.50737
345,22.50365
346,22.49993
347,22.49621
348,22.49249
349,22.49488
350,22.50966
351,22.52444
352,22.53922
353,22.55400
354,22.56878
355,22.58356
356,22.59834
357,22.61313
358,22.62791
359,22.64269
360,22.65747
361,22.67225
362,22.68703
363,22.70181
364,22.71659
365,22.73137
366,22.74616
367,22.76094
368,22.77572
369,22.79050
370,22.80528
371,22.82006
372,22.83484
373,22.84962
374,22.86440
375,22.87918
376,22.89397
377,22.90875
378,22.92353
379,22.93831
380,22.95309
381,22.96787
382,22.98265
383,22.99743
384,23.01221
385,23.02699
386,23.04178
387,23.05656
388,23.07134
389,23.08612
390,23.10090
391,23.11568
392,23.13046
393,23.14524
394,23.16002
395,23.17480
396,23.18959
397,23.20437
398,23.21915
399,23.23393
400,23.24871
401,23.26349
402,23.27827
403,23.29305
404,23.27157
405,23.21793
406,23.16429
407,23.11065
408,23.05701
409,23.00338
410,22.94974
411,22.89610
412,22.84246
413,22.78882
414,22.73518
415,22.68154
416,22.62790
417,22.57426
418,22.52062
419,22.46698
420,22.41334
421,22.35971
422,22.30607
423,22.25243
424,22.19879
425,22.14515
426,22.09151
427,22.03787
428,21.98423
429,21.93059
430,21.87695
431,21.82331
432,21.76967
433,21.71603
434,21.66240
435,21.60876
436,21.55512
437,21.50148
438,21.44784
439,21.39420
440,21.34056
441,21.28692
442,21.23328
443,21.17964
444,21.12600
445,21.07236
446,21.01873
447,20.96509
448,20.91145
449,20.85781
450,20.80417
451,20.75053
452,20.69689
453,20.64325
454,20.58961
455,20.53597
456,20.48233
457,20.42869
458,20.37506
459,20.32142
460,20.26778
461,20.21414
462,20.18284
463,20.16982
464,20.15680
465,20.14378
466,20.13076
467,20.11773
468,20.10471
469,20.09169
470,20.07867
471,20.06565
472,20.05263
473,20.03961
474,20.02659
475,20.01357
476,20.00055
477,19.98753
478,19.97451
479,19.96148
480,19.94846
481,19.93544
482,19.92242
483,19.90940
484,19.89638
485,19.88336
486,19.87034
487,19.85732
488,19.84430
489,19.83128
490,19.81826
491,19.80523
492,19.79221
493,19.77919
494,19.76617
495,19.75315
496,19.74013
497,19.72711
498,19.71409
499,19.70107
500,19.68805
501,19.67503
502,19.66201
503,19.64898
504,19.64094
505,19.64398
506,19.64702
507,19.65005
508,19.65309
509,19.65613
510,19.65916
511,19.66220
512,19.66524
513,19.66827
514,19.67131
515,19.67435
516,19.67738
517,19.68042
518,19.68346
519,19.68649
520,19.68953
521,19.69257
522,19.69561
523,19.69864
524,19.70168
525,19.70472
526,19.70775
527,19.71079
528,19.71383
529,19.71686
530,19.71990
531,19.72294
532,19.72597
533,19.72901
534,19.73205
535,19.73508
536,19.73812
537,19.74116
538,19.74420
539,19.74723
540,19.75027
541,19.75331
542,19.75634
543,19.75938
544,19.76242
545,19.76545
546,19.76849
547,19.77153
548,19.77456
549,19.77760
550,19.78000
551,19.78000
552,19.78000
553,19.78000
554,19.78000
555,19.78000
556,19.78000
557,19.78000
558,19.78000
559,19.78000
560,19.78000
561,19.78000
562,19.78000
563,19.78000
564,19.78000
565,19.78000
566,19.78000
567,19.78000
568,19.78000
569,19.78000
570,19.78000
571,19.78000
572,19.78000
573,19.78000
574,19.78000
575,19.78000
576,19.78000
577,19.78000
578,19.78000
579,19.78000
580,19.78000
581,19.78000
582,19.78000
583,19.78000
584,19.78000
585,19.78000
586,19.78000
587,19.78000
588,19.78000
589,19.78000
590,19.78000
591,19.78000
592,19.78000
593,19.78000
594,19.78000
595,19.78000
596,19.78000
597,19.78000
598,19.78000
599,19.78000
600,19.78000
601,19.78000
602,19.78000
603,19.78000
604,19.79890
605,19.84864
606,19.89838
607,19.94812
608,19.99786
609,20.04760
610,20.09733
611,20.14707
612,20.19681
613,20.24655
614,20.29629
615,20.34603
616,20.39577
617,20.44551
618,20.49525
619,20.54499
620,20.59473
621,20.64446
622,20.69420
623,20.74394
624,20.79368
625,20.84342
626,20.89316
627,20.94290
628,20.99264
629,21.04238
630,21.09212
631,21.14185
632,21.19159
633,21.24133
634,21.29107
635,21.34081
636,21.39055
637,21.43155
638,21.47051
639,21.50946
640,21.54842
641,21.58737
642,21.62632
643,21.66528
644,21.70423
645,21.74319
646,21.78214
647,21.82110
648,21.86005
649,21.89900
650,21.93796
651,21.97691
652,22.01587
653,22.05482
654,22.09378
655,22.13273
656,22.17168
657,22.21064
658,22.24959
659,22.28855
660,22.32750
661,22.36645
662,22.40541
663,22.44436
664,22.48332
665,22.52227
666,22.56123
667,22.60018
668,22.63913
669,22.67809
670,22.71704
671,22.75600
672,22.79495
673,22.83391
674,22.87286
675,22.90189
676,22.92313
677,22.94437
678,22.96561
679,22.98685
680,23.00809
681,23.02933
682,23.05057
683,23.07181
684,23.09305
685,23.11429
686,23.13553
687,23.15677
688,23.17801
689,23.19925
690,23.22049
691,23.24173
692,23.26297
693,23.28421
694,23.30545
695,23.32669
696,23.34792
697,23.36916
698,23.39040
699,23.41164
700,23.43288
701,23.45412
702,23.47536
703,23.49660
704,23.51784
705,23.53908
706,23.56032
707,23.58156
708,23.60280
709,23.62404
710,23.64528
711,23.66652
712,23.68776
713,23.70900
714,23.73024
715,23.75148
716,23.77272
717,23.79396
718,23.81519
719,23.83643
720,23.85767
721,23.87891
722,23.90015
723,23.92139
724,23.94263
725,23.96387
726,23.98511
727,24.00635
728,24.02759
729,24.04883
730,24.07007
731,24.09131
732,24.10926
733,24.10313
734,24.09699
735,24.09085
736,24.08472
737,24.07858
738,24.07245
739,24.06631
740,24.06017
741,24.05404
742,24.04790
743,24.04176
744,24.03563
745,24.02949
746,24.02335
747,24.01722
748,24.01108
749,24.00495
750,23.99881
751,23.99267
752,23.98654
753,23.98040
754,23.97426
755,23.96813
756,23.96199
757,23.95585
758,23.94972
759,23.94358
760,23.93745
761,23.93131
762,23.92517
763,23.91904
764,23.91290
765,23.90676
766,23.90063
767,23.89449
768,23.88835
769,23.88222
770,23.87608
771,23.86995
772,23.86381
773,23.85767
774,23.85154
775,23.84540
776,23.83861
777,23.82704
778,23.81546
779,23.80388
780,23.79231
781,23.78073
782,23.76916
783,23.75758
784,23.74601
785,23.73443
786,23.72286
787,23.71128
788,23.69970
789,23.68813
790,23.67655
791,23.66498
792,23.65340
793,23.64183
794,23.63025
795,23.61868
796,23.60710
797,23.59552
798,23.58395
799,23.57237
800,23.56080
801,23.54922
802,23.53765
803,23.52607
804,23.51450
805,23.50292
806,23.49134
807,23.47977
808,23.46819
809,23.45662
810,23.44504
811,23.43347
812,23.42189
813,23.41032
814,23.39874
815,23.38716
816,23.37559
817,23.36401
818,23.35244
819,23.34086
820,23.32929
821,23.31771
822,23.30614
823,23.31292
824,23.34042
825,23.36792
826,23.39541
827,23.42291
828,23.45040
829,23.47790
830,23.50540
831,23.53289
832,23.56039
833,23.58788
834,23.61538
835,23.64288
836,23.67037
837,23.69787
838,23.72536
839,23.75286
840,23.78036
841,23.80785
842,23.83535
843,23.86284
844,23.89034
845,23.91784
846,23.94533
847,23.97283
848,24.00032
849,24.02782
850,24.05532
851,24.08281
852,24.11031
853,24.13780
854,24.16530
855,24.19280
856,24.22029
857,24.24779
858,24.27529
859,24.30278
860,24.33028
861,24.35777
862,24.38527
863,24.41277
864,24.44026
865,24.46776
866,24.49525
867,24.52172
868,24.53888
869,24.55605
870,24.57321
871,24.59038
872,24.60754
873,24.62470
874,24.64187
875,24.65903
876,24.67620
877,24.69336
878,24.71053
879,24.72769
880,24.74486
881,24.76202
882,24.77919
883,24.79635
884,24.81352
885,24.83068
886,24.84784
887,24.86501
888,24.88217
889,24.89934
890,24.91650
891,24.93367
892,24.95083
893,24.96800
894,24.98516
895,25.00233
896,25.01949
897,25.03666
898,25.05382
899,25.07099
900,25.08815
901,25.10531
902,25.12248
903,25.13964
904,25.15681
905,25.17397
906,25.19114
907,25.20830
908,25.22547
909,25.24263
910,25.25980
911,25.27696
912,25.29413
913,25.31129
914,25.32846
915,25.34562
916,25.36278
917,25.37995
918,25.39711
919,25.41428
920,25.43144
921,25.44861
922,25.46577
923,25.48294
924,25.50010
925,25.51727
926,25.53443
927,25.55160
928,25.56876
929,25.58592
930,25.60300
931,25.61963
932,25.63627
933,25.65291
934,25.66955
935,25.68619
936,25.70283
937,25.71947
938,25.73611
939,25.75275
940,25.76939
941,25.78603
942,25.80267
943,25.81931
944,25.83595
945,25.85259
946,25.86923
947,25.88586
948,25.90250
949,25.91914
950,25.93578
951,25.95242
952,25.96906
953,25.98570
954,26.00234
955,26.01898
956,26.03562
957,26.05226
958,26.06890
959,26.08554
960,26.10218
961,26.11882
962,26.13546
963,26.15209
964,26.16873
965,26.18537
966,26.20201
967,26.21865
968,26.23529
969,26.25193
970,26.26857
971,26.28521
972,26.30185
973,26.31849
974,26.33513
975,26.35177
976,26.36841
977,26.38505
978,26.40169
979,26.41833
980,26.43496
981,26.45160
982,26.46824
983,26.48488
984,26.50152
985,26.51816
986,26.53480
987,26.55144
988,26.56808
989,26.58472
990,26.60136
991,26.61800
992,26.63464
993,26.65128
994,26.66792
995,26.68456
996,26.70119
997,26.71783
998,26.73447
999,26.75111
1000,26.76775
1001,26.78439
1002,26.80103
1003,26.81767
1004,26.82521
1005,26.83128
1006,26.83734
1007,26.84340
1008,26.84946
1009,26.85553
1010,26.86159
1011,26.86765
1012,26.87371
1013,26.87977
1014,26.88584
1015,26.89190
1016,26.89796
1017,26.90402
1018,26.91009
1019,26.91615
1020,26.92221
1021,26.92827
1022,26.93434
1023,26.94040
1024,26.94646
1025,26.95252
1026,26.95858
1027,26.96465
1028,26.97071
1029,26.97677
1030,26.98283
1031,26.98890
1032,26.99496
1033,27.00102
1034,27.00708
1035,27.01315
1036,27.01921
1037,27.02527
1038,27.03133
1039,27.03739
1040,27.04346
1041,27.04952
1042,27.05558
1043,27.06164
1044,27.06771
1045,27.07377
1046,27.07983
1047,27.08589
1048,27.09196
1049,27.09802
1050,27.10408
1051,27.11014
1052,27.11620
1053,27.12227
1054,27.12833
1055,27.13439
1056,27.14045
1057,27.14652
1058,27.15258
1059,27.15864
1060,27.16470
1061,27.17077
1062,27.17683
1063,27.18289
1064,27.18895
1065,27.19501
1066,27.20108
1067,27.20714
1068,27.21320
1069,27.21926
1070,27.22533
1071,27.23139
1072,27.23745
1073,27.24351
1074,27.24958
1075,27.25564
1076,27.26170
1077,27.26776
1078,27.27382
1079,27.27989
1080,27.28595
1081,27.29201
1082,27.29807
1083,27.30414
1084,27.31020
1085,27.31626
1086,27.32232
1087,27.32839
1088,27.33445
1089,27.34051
1090,27.34657
1091,27.35263
1092,27.35870
1093,27.36476
1094,27.37082
1095,27.37688
1096,27.38295
1097,27.38901
1098,27.39507
1099,27.40113
1100,27.40720
1101,27.41326
1102,27.41932
1103,27.42538
1104,27.43144
1105,27.43751
1106,27.44357
1107,27.44963
1108,27.45569
1109,27.46176
1110,27.46782
1111,27.47388
1112,27.47994
1113,27.48601
1114,27.49207
1115,27.49813
1116,27.50419
1117,27.51025
1118,27.51632
1119,27.52238
1120,27.52844
1121,27.53450
1122,27.54057
1123,27.54663
1124,27.55269
1125,27.55875
1126,27.56482
1127,27.57088
1128,27.57694
1129,27.58300
1130,27.58906
1131,27.59513
1132,27.60119
1133,27.60725
1134,27.61331
1135,27.61938
1136,27.62544
1137,27.63150
1138,27.63756
1139,27.64363
1140,27.64969
1141,27.65575
1142,27.66181
1143,27.66787
1144,27.67394
1145,27.68000
1146,27.68606
1147,27.69212
1148,27.69819
1149,27.70425
1150,27.71031
1151,27.71637
1152,27.72244
1153,27.72850
1154,27.73456
1155,27.74062
1156,27.74668
1157,27.75275
1158,27.75881
1159,27.76487
1160,27.77093
1161,27.77700
1162,27.78306
1163,27.78912
1164,27.79518
1165,27.80125
1166,27.80731
1167,27.81337
1168,27.81943
1169,27.82549
1170,27.83156
1171,27.83762
1172,27.84368
1173,27.84974
1174,27.85581
1175,27.86187
1176,27.86793
1177,27.87399
1178,27.88006
1179,27.88612
1180,27.89218
1181,27.89824
1182,27.89815
1183,27.89554
1184,27.89294
1185,27.89033
1186,27.88772
1187,27.88512
1188,27.88251
1189,27.87990
1190,27.87730
1191,27.87469
1192,27.87208
1193,27.86948
1194,27.86687
1195,27.86426
1196,27.86166
1197,27.85905
1198,27.85644
1199,27.85384
1200,27.85123
1201,27.84862
1202,27.84602
1203,27.84341
1204,27.84080
1205,27.83820
1206,27.83559
1207,27.83298
1208,27.83038
1209,27.82777
1210,27.82516
1211,27.82256
1212,27.81995
1213,27.81734
1214,27.81474
1215,27.81213
1216,27.80953
1217,27.80692
1218,27.80431
1219,27.80171
1220,27.79910
1221,27.79649
1222,27.79389
1223,27.79128
1224,27.78867
1225,27.78607
1226,27.78346
1227,27.78085
1228,27.77825
1229,27.77564
1230,27.77303
1231,27.77043
1232,27.76782
1233,27.76521
1234,27.76261
1235,27.76000
1236,27.75739
1237,27.75479
1238,27.75218
1239,27.74957
1240,27.74697
1241,27.74436
1242,27.74175
1243,27.73915
1244,27.73654
1245,27.73393
1246,27.73133
1247,27.72872
1248,27.72611
1249,27.72351
1250,27.72090
1251,27.71829
1252,27.71569
1253,27.71308
1254,27.71047
1255,27.70787
1256,27.70526
1257,27.70265
1258,27.70005
1259,27.69744
1260,27.69483
1261,27.69223
1262,27.68962
1263,27.68701
1264,27.68441
1265,27.68180
1266,27.67920
1267,27.67659
1268,27.67398
1269,27.67138
1270,27.66877
1271,27.66616
1272,27.66356
1273,27.66095
1274,27.65834
1275,27.65574
1276,27.65313
1277,27.65052
1278,27.64792
1279,27.64531
1280,27.64270
1281,27.64010
1282,27.63749
1283,27.63488
1284,27.63228
1285,27.62967
1286,27.62706
1287,27.62446
1288,27.62185
1289,27.61924
1290,27.61664
1291,27.61403
1292,27.61142
1293,27.60882
1294,27.60621
1295,27.60360
1296,27.60100
1297,27.59839
1298,27.59578
1299,27.59318
1300,27.59057
1301,27.58796
1302,27.58536
1303,27.58275
1304,27.58014
1305,27.57754
1306,27.57493
1307,27.57232
1308,27.56972
1309,27.56711
1310,27.56450
1311,27.56190
1312,27.55929
1313,27.55669
1314,27.55408
1315,27.55147
1316,27.54887
1317,27.54626
1318,27.54365
1319,27.54105
1320,27.53844
1321,27.53583
1322,27.53323
1323,27.53062
1324,27.52801
1325,27.52541
1326,27.52280
1327,27.52019
1328,27.51759
1329,27.51498
1330,27.51237
1331,27.50977
1332,27.50716
1333,27.50455
1334,27.50195
1335,27.49934
1336,27.49673
1337,27.49413
1338,27.49152
1339,27.48891
1340,27.48631
1341,27.48370
1342,27.48109
1343,27.47849
1344,27.47588
1345,27.47327
1346,27.47067
1347,27.46806
1348,27.46545
1349,27.46285
1350,27.46024
1351,27.45763
1352,27.45503
1353,27.45242
1354,27.44981
1355,27.44721
1356,27.44460
1357,27.44199
1358,27.43939
1359,27.43678
1360,27.43418
1361,27.43157
1362,27.42896
1363,27.42636
1364,27.42375
1365,27.42114
1366,27.41854
1367,27.41593
1368,27.41332
1369,27.41072
1370,27.40811
1371,27.40550
1372,27.40290
1373,27.40029
1374,27.39768
1375,27.39508
1376,27.39247
1377,27.38986
1378,27.38726
1379,27.38465
1380,27.38204
1381,27.37944
1382,27.37683
1383,27.37422
1384,27.37162
1385,27.36901
1386,27.36640
1387,27.36380
1388,27.36119
1389,27.35858
1390,27.35598
1391,27.35337
1392,27.35076
1393,27.34816
1394,27.34555
1395,27.34294
1396,27.34034
1397,27.33773
1398,27.33512
1399,27.33252
1400,27.32991
1401,27.32730
1402,27.32470
1403,27.32209
1404,27.31948
1405,27.31688
1406,27.31427
1407,27.31167
1408,27.30906
1409,27.30645
1410,27.30385
1411,27.30124
1412,27.29863
1413,27.29603
1414,27.29342
1415,27.29081
1416,27.28821
1417,27.28560
1418,27.28299
1419,27.28039
1420,27.27778
1421,27.27517
1422,27.27257
1423,27.26996
1424,27.26735
1425,27.26475
1426,27.26214
1427,27.25953
1428,27.25693
1429,27.25432
1430,27.25171
1431,27.24911
1432,27.24650
1433,27.24389
1434,27.24129
1435,27.23868
1436,27.23607
1437,27.23347
1438,27.23086
1439,27.22825
1440,27.22565
1441,27.22304
1442,27.22043
1443,27.21783
1444,27.21522
1445,27.21261
1446,27.21001
1447,27.20740
1448,27.20479
1449,27.20219
1450,27.19958
1451,27.19697
1452,27.19437
1453,27.19176
1454,27.18915
1455,27.18655
1456,27.18394
1457,27.18134
1458,27.17873
1459,27.17612
1460,27.17352
1461,27.17091
1462,27.16830
1463,27.16570
1464,27.16309
1465,27.16048
1466,27.15788
1467,27.15527
1468,27.15266
1469,27.15006
1470,27.14745
1471,27.14484
1472,27.14224
1473,27.13963
1474,27.13702
1475,27.13442
1476,27.13181
1477,27.12920
1478,27.12660
1479,27.12399
1480,27.12138
1481,27.11878
1482,27.11617
1483,27.11356
1484,27.11096
1485,27.10835
1486,27.10574
1487,27.10314
1488,27.10053
1489,27.09792
1490,27.09532
1491,27.09271
1492,27.09010
1493,27.09540
1494,27.10102
1495,27.10664
1496,27.11227
1497,27.11789
1498,27.12351
1499,27.12914
1500,27.13476
1501,27.14038
1502,27.14601
1503,27.15163
1504,27.15725
1505,27.16287
1506,27.16850
1507,27.17412
1508,27.17974
1509,27.18537
1510,27.19099
1511,27.19661
1512,27.20224
1513,27.20786
1514,27.21348
1515,27.21911
1516,27.22473
1517,27.23035
1518,27.23597
1519,27.24160
1520,27.24722
1521,27.25284
