Frequency (Hz),dB (Relative)
20,-10.00000
21,-10.00000
22,-10.00000
23,-10.00000
24,-10.00000
25,-10.00000
26,-10.00000
27,-10.00000
28,-10.00000
29,-10.00000
30,-10.00000
31,-9.22666
32,-8.24774
33,-7.26883
34,-6.28991
35,-5.31099
36,-4.33208
37,-3.31856
38,-2.10893
39,-0.89931
40,0.21973
41,1.05193
42,1.88413
43,2.71633
44,3.54853
45,4.12503
46,4.64917
47,5.17331
48,5.69745
49,6.22159
50,6.74572
51,7.26986
52,7.87420
53,8.53662
54,9.19904
55,9.86146
56,10.52389
57,10.99596
58,11.43960
59,11.88324
60,12.32687
61,12.77051
62,13.21886
63,13.67523
64,14.13161
65,14.58799
66,15.04436
67,15.51965
68,15.99704
69,16.47442
70,16.95181
71,17.30609
72,17.64967
73,17.99325
74,18.33684
75,18.68042
76,18.97390
77,19.18904
78,19.40418
79,19.61932
80,19.83446
81,20.07375
82,20.35416
83,20.63458
84,20.91499
85,21.19540
86,21.21994
87,21.00829
88,20.79664
89,20.58499
90,20.37334
91,20.26503
92,20.33270
93,20.40036
94,20.46802
95,20.53568
96,20.60334
97,20.67100
98,20.73867
99,20.80633
100,20.87399
101,20.74915
102,20.21525
103,19.68136
104,19.14746
105,18.61356
106,18.07966
107,17.54576
108,17.01186
109,16.47797
110,15.94407
111,15.41017
112,14.87627
113,14.34237
114,13.80847
115,13.27458
116,12.74068
117,12.20678
118,12.38754
119,12.74697
120,13.10640
121,13.46583
122,13.82526
123,14.18469
124,14.54412
125,14.90355
126,15.26298
127,15.62241
128,15.98184
129,16.34127
130,16.70070
131,17.06013
132,17.41956
133,17.77899
134,18.13842
135,18.49785
136,18.85728
137,19.21671
138,19.57614
139,19.93556
140,20.29499
141,20.65442
142,21.01385
143,21.37328
144,21.73271
145,22.09214
146,22.45157
147,22.81100
148,23.17043
149,23.52986
150,23.88929
151,24.24872
152,24.52529
153,24.69641
154,24.86753
155,25.03865
156,25.20977
157,25.38089
158,25.55201
159,25.72313
160,25.89425
161,26.06537
162,26.23649
163,26.40761
164,26.57873
165,26.74985
166,26.92097
167,27.09209
168,27.26321
169,27.43433
170,27.60545
171,27.77657
172,27.94769
173,28.11881
174,28.28993
175,28.46105
176,28.63217
177,28.80329
178,28.97441
179,29.14553
180,29.31665
181,29.48777
182,29.65889
183,29.83001
184,30.00113
185,30.10996
186,29.80193
187,29.49390
188,29.18587
189,28.87784
190,28.56982
191,28.26179
192,27.95376
193,27.64573
194,27.33771
195,27.02968
196,26.72165
197,26.41362
198,26.10559
199,25.79757
200,25.48954
201,25.18151
202,24.87348
203,24.56545
204,24.25743
205,23.94940
206,23.64137
207,23.33334
208,23.08959
209,23.08766
210,23.08573
211,23.08380
212,23.08186
213,23.07993
214,23.07800
215,23.07607
216,23.07413
217,23.07220
218,23.07027
219,23.06834
220,23.06640
221,23.06447
222,23.06254
223,23.06061
224,23.05867
225,23.05674
226,23.05481
227,23.05288
228,23.05094
229,23.04901
230,23.04708
231,23.04515
232,23.04321
233,23.04128
234,23.03935
235,23.03742
236,23.03548
237,23.03355
238,23.03162
239,23.02969
240,23.02775
241,23.02582
242,23.02389
243,23.02196
244,23.02002
245,23.01809
246,23.01616
247,23.01423
248,23.01229
249,23.01036
250,23.00843
251,23.00650
252,23.00456
253,23.00263
254,23.00070
255,22.99877
256,22.99683
257,22.99490
258,22.99297
259,22.99104
260,22.98910
261,22.98717
262,22.98524
263,22.98331
264,22.98137
265,22.97944
266,22.97751
267,22.97558
268,22.97364
269,22.97171
270,22.96978
271,22.96785
272,22.96591
273,22.96398
274,22.96205
275,22.96012
276,23.00838
277,23.05985
278,23.11132
279,23.16279
280,23.21426
281,23.26573
282,23.31720
283,23.36867
284,23.42014
285,23.47161
286,23.52308
287,23.57455
288,23.62602
289,23.67749
290,23.72895
291,23.78042
292,23.83189
293,23.88336
294,23.93483
295,23.98630
296,24.03777
297,24.08924
298,24.14071
299,24.19218
300,24.24365
301,24.29512
302,24.34659
303,24.39806
304,24.44953
305,24.50100
306,24.55247
307,24.60394
308,24.65541
309,24.70688
310,24.75834
311,24.80981
312,24.86128
313,24.91275
314,24.96422
315,25.01569
316,25.06716
317,25.11863
318,25.17010
319,25.22157
320,25.27304
321,25.32451
322,25.37598
323,25.42745
324,25.47892
325,25.53039
326,25.58186
327,25.63333
328,25.68480
329,25.73627
330,25.78774
331,25.83920
332,25.89067
333,25.94214
334,25.99361
335,26.04508
336,26.09655
337,26.14802
338,26.19949
339,26.25096
340,26.30243
341,26.35390
342,26.40537
343,26.45684
344,26.45755
345,26.41673
346,26.37592
347,26.33510
348,26.29429
349,26.25347
350,26.21265
351,26.17184
352,26.13102
353,26.09020
354,26.04939
355,26.00857
356,25.96776
357,25.92694
358,25.88612
359,25.84531
360,25.80449
361,25.76367
362,25.72286
363,25.68204
364,25.64122
365,25.60041
366,25.55959
367,25.51878
368,25.47796
369,25.43714
370,25.39633
371,25.35551
372,25.31469
373,25.27388
374,25.23306
375,25.19224
376,25.15143
377,25.11061
378,25.06980
379,25.02898
380,24.98816
381,24.94735
382,24.90653
383,24.86571
384,24.82490
385,24.78408
386,24.74327
387,24.70245
388,24.66163
389,24.62082
390,24.58000
391,24.53918
392,24.49837
393,24.45755
394,24.41673
395,24.37592
396,24.33510
397,24.29429
398,24.25347
399,24.21265
400,24.17571
401,24.15429
402,24.13286
403,24.11144
404,24.09001
405,24.06859
406,24.04716
407,24.02574
408,24.00431
409,23.98289
410,23.96146
411,23.94004
412,23.91861
413,23.89719
414,23.87576
415,23.85433
416,23.83291
417,23.81148
418,23.79006
419,23.76863
420,23.74721
421,23.72578
422,23.70436
423,23.68293
424,23.66151
425,23.64008
426,23.61866
427,23.59723
428,23.57581
429,23.55438
430,23.53295
431,23.51153
432,23.49010
433,23.46868
434,23.44725
435,23.42583
436,23.40440
437,23.38298
438,23.36155
439,23.34013
440,23.31870
441,23.29728
442,23.27585
443,23.25442
444,23.23300
445,23.22769
446,23.22501
447,23.22232
448,23.21964
449,23.21696
450,23.21427
451,23.21159
452,23.20890
453,23.20622
454,23.20354
455,23.20085
456,23.19817
457,23.19548
458,23.19280
459,23.19012
460,23.18743
461,23.18475
462,23.18206
463,23.17938
464,23.17669
465,23.17401
466,23.17133
467,23.16864
468,23.16596
469,23.16327
470,23.16059
471,23.15791
472,23.15522
473,23.15254
474,23.14985
475,23.14717
476,23.14449
477,23.14180
478,23.13912
479,23.13643
480,23.13375
481,23.13107
482,23.12838
483,23.12570
484,23.12301
485,23.12033
486,23.11765
487,23.11496
488,23.11228
489,23.10959
490,23.10691
491,23.10423
492,23.10154
493,23.09886
494,23.09617
495,23.09349
496,23.09081
497,23.07352
498,23.04998
499,23.02645
500,23.00291
501,22.97937
502,22.95583
503,22.93229
504,22.90875
505,22.88522
506,22.86168
507,22.83814
508,22.81460
509,22.79106
510,22.76752
511,22.74398
512,22.72045
513,22.69691
514,22.67337
515,22.64983
516,22.62629
517,22.60275
518,22.57921
519,22.55568
520,22.53214
521,22.50860
522,22.48506
523,22.46152
524,22.43798
525,22.41445
526,22.39091
527,22.36737
528,22.34383
529,22.32029
530,22.29675
531,22.27321
532,22.24968
533,22.22614
534,22.20260
535,22.17906
536,22.15552
537,22.13198
538,22.10844
539,22.08491
540,22.06137
541,22.03783
542,22.01429
543,21.99075
544,21.96721
545,21.94368
546,21.92014
547,21.89660
548,21.87306
549,21.89272
550,21.91883
551,21.94494
552,21.97106
553,21.99717
554,22.02328
555,22.04940
556,22.07551
557,22.10162
558,22.12774
559,22.15385
560,22.17996
561,22.20607
562,22.23219
563,22.25830
564,22.28441
565,22.31053
566,22.33664
567,22.36275
568,22.38887
569,22.41498
570,22.44109
571,22.46720
572,22.49332
573,22.51943
574,22.54554
575,22.57166
576,22.59777
577,22.62388
578,22.65000
579,22.67611
580,22.70222
581,22.72833
582,22.75445
583,22.78056
584,22.80667
585,22.83279
586,22.85890
587,22.88501
588,22.91113
589,22.93724
590,22.96335
591,22.98946
592,23.01558
593,23.04169
594,23.06780
595,23.07500
596,22.97500
597,22.87500
598,22.77500
599,22.67500
600,22.57500
601,22.47500
602,22.37500
603,22.27500
604,22.17500
605,22.07500
606,21.97500
607,21.87500
608,21.77500
609,21.67500
610,21.57500
611,21.47500
612,21.37500
613,21.27500
614,21.17500
615,21.07500
616,20.97500
617,20.87500
618,20.77500
619,20.67500
620,20.57500
621,20.47500
622,20.37500
623,20.27500
624,20.17500
625,20.07500
626,19.97500
627,19.87500
628,19.77500
629,19.67500
630,19.57500
631,19.47500
632,19.37500
633,19.27500
634,19.17500
635,19.07500
636,18.97500
637,18.87500
638,18.77500
639,18.67500
640,18.57500
641,18.47500
642,18.37500
643,18.27500
644,18.17500
645,18.07500
646,17.97500
647,17.87500
648,17.77500
649,17.67500
650,17.57500
651,17.47500
652,17.37500
653,17.27500
654,17.24298
655,17.22296
656,17.20294
657,17.18292
658,17.16290
659,17.14288
660,17.12286
661,17.10283
662,17.08281
663,17.06279
664,17.04277
665,17.02275
666,17.00273
667,16.98271
668,16.96269
669,16.94267
670,16.92264
671,16.90262
672,16.88260
673,16.86258
674,16.84256
675,16.82254
676,16.80252
677,16.78250
678,16.76248
679,16.74246
680,16.72243
681,16.70241
682,16.68239
683,16.66237
684,16.64235
685,16.62233
686,16.60231
687,16.58229
688,16.56227
689,16.54224
690,16.52222
691,16.50220
692,16.48218
693,16.46216
694,16.44214
695,16.42212
696,16.40210
697,16.38208
698,16.36205
699,16.34203
700,16.32201
701,16.27690
702,16.19416
703,16.11142
704,16.02867
705,15.94593
706,15.86318
707,15.78044
708,15.69770
709,15.61495
710,15.53221
711,15.44947
712,15.36672
713,15.28398
714,15.20123
715,15.11849
716,15.03575
717,14.95300
718,14.87026
719,14.78752
720,14.70477
721,14.62203
722,14.53928
723,14.45654
724,14.37380
725,14.29105
726,14.20831
727,14.12557
728,14.04282
729,13.96008
730,13.87733
731,13.79459
732,13.71185
733,13.62910
734,13.54636
735,13.46362
736,13.38087
737,13.29813
738,13.21539
739,13.13264
740,13.04990
741,12.96715
742,12.88441
743,12.80167
744,12.71892
745,12.63618
746,12.55344
747,12.47069
748,12.38795
749,12.30520
750,12.22246
751,12.13972
752,12.10782
753,12.12285
754,12.13789
755,12.15292
756,12.16795
757,12.18299
758,12.19802
759,12.21306
760,12.22809
761,12.24313
762,12.25816
763,12.27319
764,12.28823
765,12.30326
766,12.31830
767,12.33333
768,12.34837
769,12.36340
770,12.37843
771,12.39347
772,12.40850
773,12.42354
774,12.43857
775,12.45361
776,12.46864
777,12.48367
778,12.49871
779,12.51374
780,12.52878
781,12.54381
782,12.55885
783,12.57388
784,12.58891
785,12.60395
786,12.61898
787,12.63402
788,12.64905
789,12.66409
790,12.67912
791,12.69415
792,12.70919
793,12.72422
794,12.73926
795,12.75429
796,12.76933
797,12.77594
798,12.76194
799,12.74795
800,12.73395
801,12.71995
802,12.70596
803,12.69196
804,12.67796
805,12.66397
806,12.64997
807,12.63597
808,12.62198
809,12.60798
810,12.59398
811,12.57998
812,12.56599
813,12.55199
814,12.53799
815,12.52400
816,12.51000
817,12.49600
818,12.48201
819,12.46801
820,12.45401
821,12.44002
822,12.42602
823,12.41202
824,12.39802
825,12.38403
826,12.37003
827,12.35603
828,12.34204
829,12.32804
830,12.31404
831,12.30005
832,12.28605
833,12.27205
834,12.25806
835,12.24406
836,12.23006
837,12.21607
838,12.20207
839,12.18807
840,12.17407
841,12.16008
842,12.14608
843,12.13208
844,12.11809
845,12.10409
846,12.09009
847,12.07610
848,12.06210
849,12.04810
850,12.03411
851,12.02011
852,12.00611
853,11.99212
854,11.97812
855,11.97737
856,11.99493
857,12.01248
858,12.03004
859,12.04759
860,12.06515
861,12.08270
862,12.10026
863,12.11782
864,12.13537
865,12.15293
866,12.17048
867,12.18804
868,12.20559
869,12.22315
870,12.24070
871,12.25826
872,12.27581
873,12.29337
874,12.31092
875,12.32848
876,12.34603
877,12.36359
878,12.38114
879,12.39870
880,12.41625
881,12.43381
882,12.45137
883,12.46892
884,12.48648
885,12.50403
886,12.52159
887,12.53914
888,12.55670
889,12.57425
890,12.59181
891,12.60936
892,12.62692
893,12.64447
894,12.66203
895,12.67958
896,12.69714
897,12.71469
898,12.73225
899,12.74980
900,12.76736
901,12.79400
902,12.84400
903,12.89400
904,12.94400
905,12.99400
906,13.04400
907,13.09400
908,13.14400
909,13.19400
910,13.24400
911,13.29400
912,13.34400
913,13.39400
914,13.44400
915,13.49400
916,13.54400
917,13.59400
918,13.64400
919,13.69400
920,13.74400
921,13.79400
922,13.84400
923,13.89400
924,13.94400
925,13.99400
926,14.04400
927,14.09400
928,14.14400
929,14.19400
930,14.24400
931,14.29400
932,14.34400
933,14.39400
934,14.44400
935,14.49400
936,14.54400
937,14.59400
938,14.64400
939,14.69400
940,14.74400
941,14.79400
942,14.84400
943,14.89400
944,14.94400
945,14.99400
946,15.04400
947,15.09400
948,15.14400
949,15.19400
950,15.24400
951,15.29400
952,15.34400
953,15.39400
954,15.44400
955,15.48642
956,15.44170
957,15.39697
958,15.35224
959,15.30751
960,15.26279
961,15.21806
962,15.17333
963,15.12861
964,15.08388
965,15.03915
966,14.99443
967,14.94970
968,14.90497
969,14.86025
970,14.81552
971,14.77079
972,14.72607
973,14.68134
974,14.63661
975,14.59189
976,14.54716
977,14.50243
978,14.45771
979,14.41298
980,14.36825
981,14.32353
982,14.27880
983,14.23407
984,14.18935
985,14.14462
986,14.09989
987,14.05517
988,14.01044
989,13.96571
990,13.92099
991,13.87626
992,13.83153
993,13.78680
994,13.74208
995,13.69735
996,13.65262
997,13.60790
998,13.56317
999,13.51844
1000,13.47372
1001,13.42899
1002,13.38426
1003,13.33954
1004,13.29481
1005,13.25008
1006,13.20536
1007,13.16063
1008,13.11590
1009,13.07118
1010,13.02645
1011,12.98172
1012,12.93700
1013,12.91151
1014,12.89782
1015,12.88413
1016,12.87044
1017,12.85675
1018,12.84306
1019,12.82937
1020,12.81568
1021,12.80199
1022,12.78830
1023,12.77461
1024,12.76092
1025,12.74723
1026,12.73354
1027,12.71985
1028,12.70616
1029,12.69247
1030,12.67878
1031,12.66509
1032,12.65140
1033,12.63771
1034,12.62402
1035,12.61033
1036,12.59664
1037,12.58295
1038,12.56926
1039,12.55557
1040,12.54188
1041,12.52819
1042,12.51450
1043,12.50081
1044,12.48712
1045,12.47343
1046,12.45974
1047,12.44605
1048,12.43236
1049,12.41867
1050,12.40498
1051,12.39129
1052,12.37760
1053,12.36391
1054,12.35022
1055,12.33653
1056,12.32284
1057,12.30915
1058,12.29546
1059,12.28177
1060,12.26808
1061,12.25439
1062,12.24070
1063,12.22701
1064,12.21332
1065,12.19963
1066,12.18594
1067,12.17225
1068,12.15856
1069,12.14487
1070,12.13118
1071,12.11749
1072,12.10380
1073,12.09011
1074,12.07642
1075,12.06273
1076,12.04904
1077,12.03535
1078,12.02166
1079,12.00797
1080,11.99428
1081,11.98059
1082,11.96690
1083,11.95321
1084,11.93952
1085,11.92583
1086,11.91214
1087,11.89845
1088,11.88476
1089,11.87107
1090,11.85738
1091,11.84369
1092,11.83000
1093,11.81631
1094,11.80262
1095,11.78893
1096,11.77524
1097,11.76155
1098,11.74786
1099,11.73417
1100,11.72048
1101,11.70679
1102,11.69310
1103,11.67941
1104,11.66572
1105,11.65203
1106,11.63834
1107,11.62465
1108,11.61096
1109,11.59727
1110,11.58358
1111,11.56989
1112,11.55620
1113,11.54251
1114,11.52882
1115,11.51513
1116,11.50144
1117,11.48775
1118,11.47406
1119,11.46037
1120,11.44668
1121,11.43299
1122,11.41930
1123,11.40561
1124,11.39192
1125,11.37823
1126,11.36454
1127,11.35085
1128,11.33716
1129,11.32347
1130,11.30978
1131,11.29609
1132,11.28240
1133,11.26871
1134,11.25502
1135,11.24133
1136,11.22764
1137,11.21395
1138,11.20026
1139,11.18657
1140,11.17288
1141,11.15919
1142,11.14550
1143,11.13181
1144,11.11812
1145,11.10443
1146,11.09074
1147,11.07705
1148,11.06336
1149,11.04967
1150,11.03598
1151,11.02229
1152,11.00860
1153,10.99491
1154,10.98122
1155,10.96753
1156,10.95384
1157,10.94015
1158,10.92646
1159,10.91277
1160,10.89908
1161,10.88539
1162,10.87170
1163,10.85801
1164,10.84432
1165,10.83063
1166,10.81694
1167,10.80325
1168,10.78956
1169,10.77587
1170,10.76218
1171,10.74849
1172,10.75079
1173,10.77917
1174,10.80756
1175,10.83594
1176,10.86433
1177,10.89271
1178,10.92110
1179,10.94948
1180,10.97787
1181,11.00625
1182,11.03464
1183,11.06302
1184,11.09141
1185,11.11980
1186,11.14818
1187,11.17657
1188,11.20495
1189,11.23334
1190,11.26172
1191,11.29011
1192,11.31849
1193,11.34688
1194,11.37526
1195,11.40365
1196,11.43203
1197,11.46042
1198,11.48880
1199,11.51719
1200,11.54558
1201,11.57396
1202,11.60235
1203,11.63073
1204,11.65912
1205,11.68750
1206,11.71589
1207,11.74427
1208,11.77266
1209,11.80104
1210,11.82943
1211,11.85781
1212,11.88620
1213,11.91458
1214,11.94297
1215,11.97136
1216,11.99974
1217,12.02813
1218,12.05651
1219,12.08490
1220,12.11328
1221,12.14167
1222,12.17005
1223,12.19844
1224,12.22682
1225,12.25521
1226,12.28359
1227,12.31198
1228,12.34036
1229,12.36875
1230,12.39714
1231,12.42552
1232,12.45391
1233,12.48229
1234,12.51068
1235,12.53906
1236,12.56745
1237,12.59583
1238,12.62422
1239,12.65260
1240,12.68099
1241,12.70937
1242,12.73776
1243,12.76614
1244,12.79453
1245,12.82292
1246,12.85130
1247,12.87969
1248,12.90807
1249,12.93646
1250,12.96484
1251,12.99323
1252,13.02161
1253,13.05000
1254,13.07838
1255,13.10677
1256,13.13515
1257,13.16354
1258,13.19192
1259,13.22031
1260,13.24869
1261,13.27708
1262,13.30547
1263,13.33385
1264,13.36224
1265,13.39062
1266,13.41901
1267,13.44739
1268,13.47578
1269,13.50416
1270,13.53255
1271,13.56093
1272,13.58932
1273,13.61770
1274,13.64609
1275,13.67447
1276,13.70286
1277,13.73125
1278,13.75963
1279,13.78802
1280,13.81640
1281,13.84479
1282,13.87317
1283,13.90156
1284,13.92994
1285,13.95833
1286,13.98671
1287,14.01510
1288,14.04348
1289,14.07187
1290,14.10025
1291,14.12864
1292,14.15703
1293,14.18541
1294,14.21380
1295,14.24218
1296,14.27057
1297,14.29895
1298,14.32734
1299,14.35572
1300,14.38411
1301,14.41249
1302,14.44088
1303,14.46926
1304,14.49765
1305,14.52603
1306,14.55442
1307,14.58281
1308,14.61119
1309,14.63958
1310,14.66796
1311,14.69635
1312,14.72473
1313,14.75312
1314,14.78150
1315,14.80989
1316,14.83827
1317,14.86666
1318,14.89504
1319,14.92343
1320,14.95181
1321,14.98020
1322,15.00858
1323,15.03697
1324,15.06536
1325,15.09374
1326,15.12213
1327,15.15051
1328,15.17890
1329,15.20728
1330,15.23567
1331,15.26405
1332,15.29244
1333,15.32082
1334,15.34921
1335,15.37759
1336,15.40598
1337,15.43436
1338,15.46275
1339,15.49114
1340,15.51952
1341,15.54791
1342,15.57629
1343,15.60468
1344,15.63306
1345,15.66145
1346,15.68983
1347,15.71822
1348,15.74660
1349,15.77499
1350,15.80337
1351,15.83176
1352,15.86014
1353,15.88853
1354,15.91692
1355,15.94530
1356,15.97369
1357,16.00207
1358,16.03046
1359,16.05884
1360,16.08723
1361,16.11561
1362,16.14400
1363,16.17238
1364,16.20077
1365,16.22915
1366,16.25754
1367,16.28592
1368,16.31431
1369,16.34270
1370,16.37108
1371,16.39947
1372,16.42785
1373,16.45624
1374,16.48462
1375,16.51301
1376,16.54139
1377,16.56978
1378,16.59816
1379,16.62655
1380,16.65493
1381,16.68332
1382,16.71170
1383,16.74009
1384,16.76847
1385,16.79686
1386,16.82525
1387,16.85363
1388,16.88202
1389,16.91040
1390,16.93879
1391,16.96717
1392,16.99556
1393,17.02394
1394,17.05233
1395,17.08071
1396,17.10910
1397,17.13748
1398,17.16587
1399,17.19425
1400,17.22264
1401,17.25103
1402,17.27941
1403,17.30780
1404,17.33618
1405,17.36457
1406,17.39295
1407,17.42134
1408,17.44972
1409,17.47811
1410,17.50649
1411,17.53488
1412,17.56326
1413,17.59165
1414,17.62003
1415,17.64842
1416,17.67681
1417,17.70519
1418,17.73358
1419,17.76196
1420,17.79035
1421,17.81873
1422,17.84712
1423,17.87550
1424,17.90389
1425,17.93227
1426,17.96066
1427,17.98904
1428,18.01743
1429,18.04581
1430,18.07420
1431,18.10259
1432,18.13097
1433,18.15936
1434,18.18774
1435,18.21613
1436,18.24451
1437,18.27290
1438,18.30128
1439,18.32967
1440,18.35805
1441,18.38644
1442,18.41482
1443,18.44321
1444,18.47159
1445,18.49998
1446,18.52837
1447,18.55675
1448,18.58514
1449,18.61352
1450,18.64191
1451,18.67029
1452,18.69868
1453,18.72706
1454,18.75545
1455,18.78383
1456,18.81222
1457,18.84060
1458,18.86899
1459,18.89737
1460,18.92576
1461,18.95414
1462,18.98253
1463,19.01092
1464,19.03930
1465,19.06769
1466,19.09607
1467,19.12446
1468,19.15284
1469,19.18123
1470,19.20961
1471,19.23800
1472,19.26638
1473,19.29477
1474,19.32315
1475,19.35154
1476,19.37992
1477,19.40831
1478,19.43670
1479,19.46508
1480,19.49347
1481,19.52185
1482,19.55024
1483,19.57862
1484,19.60701
1485,19.63539
1486,19.66378
1487,19.69216
1488,19.72055
1489,19.74893
1490,19.77732
1491,19.80570
1492,19.83409
1493,19.86248
1494,19.89086
1495,19.91925
1496,19.94763
1497,19.97602
1498,20.00440
1499,20.03279
1500,20.06117
1501,20.08956
1502,20.11794
1503,20.14633
1504,20.17471
1505,20.20310
1506,20.23148
1507,20.22618
1508,20.20643
1509,20.18669
1510,20.16694
1511,20.14720
1512,20.12745
1513,20.10771
1514,20.08796
1515,20.06822
1516,20.04847
1517,20.02873
1518,20.00898
1519,19.98924
1520,19.96949
1521,19.94975
